200 96 
0.480263 0.618967 0.793524 0.881459 0.737088 0.443959 0.286895 0.460364 0.538578 0.516323 0.571983 0.521786 0.436228 0.323633 0.328427 0.303615 0.290306 0.295882 0.291846 0.268957 0.265411 0.263023 0.253082 0.205945 0.206546 0.215872 0.130758 0.161684 0.144036 0.135896 0.170425 0.143575 0.149062 0.182614 0.235881 0.260734 0.300313 0.371187 0.392289 0.446449 0.493228 0.507364 0.535751 0.557278 0.538617 0.586476 0.584773 0.536036 0.544329 0.529357 0.543071 0.531938 0.498271 0.515826 0.506562 0.507894 0.485641 0.502699 0.507825 0.464742 0.479773 0.51017 0.486625 0.46278 0.455446 0.46557 0.462751 0.448951 0.442171 0.430573 0.461475 0.43433 0.473914 0.531427 0.5056 0.53281 0.518118 0.449434 0.449536 0.414591 0.395203 0.43706 0.407195 0.395993 0.40594 0.39388 0.418356 0.39011 0.399595 0.404559 0.400628 0.404606 0.393075 0.40556 0.401001 0.434685 
0.5122 0.724899 0.929797 0.739127 0.5575 0.36668 0.293572 0.400186 0.463543 0.388769 0.357852 0.452187 0.344096 0.29049 0.303384 0.314261 0.226679 0.3275 0.256098 0.23017 0.28077 0.213387 0.222183 0.211754 0.207202 0.167577 0.146661 0.147778 0.150822 0.152693 0.143799 0.170006 0.181148 0.177741 0.326441 0.336579 0.337865 0.430875 0.427535 0.507055 0.503375 0.521332 0.568004 0.55597 0.582608 0.541574 0.540541 0.611678 0.511067 0.509022 0.550623 0.477586 0.51148 0.5221 0.47685 0.477455 0.517087 0.477659 0.465503 0.522167 0.46256 0.491367 0.476163 0.476616 0.498344 0.446577 0.485268 0.435811 0.509032 0.514652 0.405981 0.47576 0.50621 0.489997 0.564457 0.534364 0.490732 0.487435 0.481299 0.489571 0.422996 0.407212 0.424753 0.404478 0.435762 0.411947 0.434842 0.440639 0.387513 0.455442 0.409007 0.421985 0.477844 0.393681 0.444787 0.448406 
0.477437 0.498248 0.521998 0.623211 0.701903 0.647715 0.589101 0.576926 0.499379 0.419283 0.399805 0.397758 0.399994 0.378453 0.359524 0.38582 0.389277 0.352307 0.320581 0.30654 0.31717 0.309915 0.280518 0.301564 0.328085 0.286011 0.246283 0.260496 0.269851 0.249173 0.23528 0.233311 0.227014 0.215677 0.207355 0.218037 0.220047 0.19222 0.192248 0.209184 0.193979 0.194873 0.21153 0.207355 0.22358 0.258011 0.271443 0.279513 0.305931 0.350697 0.387393 0.401925 0.419422 0.433708 0.421095 0.423748 0.471427 0.493971 0.464577 0.461453 0.49042 0.491324 0.479298 0.479929 0.475617 0.474801 0.486321 0.478364 0.457214 0.468596 0.497745 0.505343 0.489895 0.474801 0.491001 0.503429 0.487385 0.513063 0.550568 0.532827 0.529822 0.551422 0.55787 0.573491 0.581687 0.588892 0.602114 0.59449 0.62525 0.657545 0.624202 0.640161 0.691012 0.629997 0.53435 0.475439 
0.572821 0.701805 0.742268 0.648511 0.509804 0.401279 0.497403 0.571006 0.546119 0.579774 0.56704 0.475372 0.356225 0.348787 0.316434 0.299402 0.303622 0.285175 0.269097 0.272001 0.242429 0.226554 0.207593 0.180352 0.169294 0.126332 0.109395 0.0917748 0.081289 0.0795856 0.0799347 0.117047 0.149747 0.188632 0.263931 0.309661 0.344583 0.401319 0.44125 0.461104 0.473532 0.495737 0.515158 0.505526 0.498605 0.508848 0.497058 0.492727 0.492384 0.495501 0.500292 0.501135 0.510368 0.506509 0.516523 0.515695 0.500938 0.508725 0.514582 0.506494 0.494063 0.504951 0.497403 0.490581 0.487046 0.482985 0.492843 0.474467 0.477454 0.475708 0.474699 0.471143 0.495349 0.510825 0.527104 0.51314 0.481557 0.476732 0.465481 0.453516 0.44082 0.4453 0.439638 0.428699 0.440642 0.4451 0.438383 0.430858 0.440192 0.437148 0.439215 0.437569 0.43248 0.442028 0.459142 0.469681 
0.482836 0.55316 0.689546 0.722456 0.630248 0.555565 0.452069 0.361563 0.43783 0.536812 0.52241 0.511488 0.530903 0.510723 0.486141 0.465503 0.396025 0.338635 0.339599 0.329208 0.310515 0.311067 0.302671 0.299063 0.306123 0.300348 0.289806 0.283199 0.279262 0.275059 0.262535 0.248558 0.246269 0.250513 0.24941 0.245598 0.240921 0.232418 0.226791 0.221332 0.208472 0.198294 0.198517 0.214071 0.238589 0.250332 0.2665 0.298905 0.3159 0.327005 0.345718 0.345038 0.338769 0.354181 0.378262 0.405004 0.434751 0.451303 0.454209 0.461507 0.47366 0.481546 0.486849 0.486024 0.480605 0.479015 0.476507 0.473445 0.468798 0.458854 0.456348 0.455827 0.449189 0.455269 0.462874 0.451186 0.443591 0.451488 0.45349 0.45034 0.457292 0.460083 0.46001 0.465887 0.464892 0.496257 0.546629 0.599433 0.74453 0.828081 0.72973 0.705003 0.710099 0.596012 0.565812 0.56186 
0.450138 0.598679 0.815236 0.922467 0.731378 0.500533 0.289821 0.30741 0.419589 0.383692 0.381891 0.38464 0.414895 0.364146 0.312735 0.29523 0.295198 0.289246 0.281119 0.264811 0.274291 0.274165 0.243769 0.228927 0.212186 0.205903 0.194091 0.176359 0.174725 0.161922 0.151785 0.155597 0.148797 0.189009 0.202762 0.245975 0.293908 0.318465 0.406237 0.432072 0.454601 0.489214 0.511424 0.543508 0.533581 0.560799 0.571466 0.558368 0.561804 0.535062 0.544816 0.537855 0.509035 0.53188 0.523968 0.510603 0.514018 0.494189 0.509013 0.508179 0.516307 0.498375 0.494296 0.496997 0.48965 0.513386 0.48607 0.464415 0.465787 0.473421 0.48026 0.497847 0.452732 0.513835 0.559618 0.52436 0.495877 0.47198 0.494266 0.450339 0.435769 0.461292 0.420549 0.413517 0.406177 0.438173 0.411485 0.383002 0.411083 0.406157 0.420751 0.411755 0.396509 0.420203 0.41689 0.415694 
0.572402 0.679717 0.676994 0.637313 0.613996 0.560743 0.456549 0.374421 0.358875 0.401565 0.422908 0.382393 0.360179 0.386026 0.391455 0.356073 0.306435 0.277838 0.280825 0.273719 0.267128 0.282014 0.269683 0.255037 0.265732 0.2406 0.222588 0.255135 0.253515 0.228425 0.232027 0.218735 0.196395 0.198936 0.191606 0.174153 0.175884 0.180939 0.175088 0.181176 0.211572 0.230365 0.228843 0.270507 0.34018 0.352116 0.353335 0.404496 0.435904 0.43651 0.457607 0.477551 0.485838 0.498661 0.502103 0.500681 0.507122 0.509215 0.505191 0.504464 0.501984 0.491441 0.483829 0.483686 0.481758 0.477877 0.471876 0.46558 0.465992 0.46704 0.471877 0.484717 0.481484 0.470338 0.493676 0.532833 0.541094 0.537285 0.555103 0.573463 0.576172 0.584088 0.593932 0.58938 0.575069 0.553033 0.53576 0.539585 0.555635 0.573966 0.575613 0.559786 0.578154 0.607503 0.56035 0.467628 
0.659541 0.805267 0.655883 0.594295 0.415594 0.390515 0.53115 0.49733 0.463076 0.468238 0.406867 0.358722 0.340476 0.292336 0.313144 0.25748 0.306663 0.289629 0.259156 0.248656 0.221443 0.211488 0.211893 0.166809 0.142444 0.184806 0.0996495 0.0922914 0.0978344 0.0823362 0.164938 0.124405 0.108711 0.266346 0.26664 0.321191 0.400607 0.423994 0.482487 0.478876 0.537831 0.521404 0.536285 0.518784 0.520286 0.530978 0.495751 0.502029 0.534504 0.50481 0.480235 0.525245 0.53179 0.526129 0.52759 0.503361 0.526241 0.518222 0.496036 0.502199 0.537587 0.474535 0.499731 0.517024 0.453487 0.491458 0.471158 0.474454 0.475948 0.473826 0.488058 0.461802 0.476482 0.495358 0.511375 0.534025 0.513936 0.500109 0.495214 0.4556 0.441442 0.467889 0.436879 0.427027 0.457468 0.434054 0.436319 0.449498 0.45683 0.41318 0.436397 0.463994 0.427699 0.430972 0.469488 0.512837 
0.647701 0.833261 0.797517 0.79749 0.569959 0.450269 0.582525 0.613423 0.559787 0.553289 0.530064 0.369265 0.347796 0.358275 0.28225 0.303255 0.272448 0.271596 0.258472 0.238561 0.259309 0.252105 0.229639 0.216892 0.213108 0.181274 0.172296 0.172854 0.171402 0.156309 0.140364 0.154368 0.191676 0.198392 0.215146 0.26879 0.313732 0.354039 0.420315 0.456037 0.481794 0.532763 0.514425 0.535228 0.551921 0.561051 0.539713 0.526305 0.528917 0.511085 0.519391 0.512935 0.508626 0.506018 0.493975 0.50148 0.484985 0.474523 0.502266 0.475479 0.464385 0.479488 0.471243 0.475865 0.458681 0.449618 0.461344 0.448709 0.440241 0.45002 0.453035 0.431265 0.448483 0.468564 0.493397 0.519849 0.49623 0.462409 0.469209 0.4417 0.398304 0.430365 0.410337 0.375298 0.407183 0.41371 0.39341 0.374778 0.396909 0.401896 0.378421 0.396832 0.404453 0.400579 0.441065 0.460639 
0.531991 0.553572 0.581003 0.665112 0.759596 0.793831 0.76472 0.709513 0.647561 0.572849 0.488371 0.424955 0.406646 0.414475 0.411516 0.393359 0.386191 0.397474 0.400187 0.38102 0.364432 0.358902 0.340987 0.317234 0.314662 0.317695 0.309612 0.305486 0.300676 0.291826 0.291251 0.273481 0.233409 0.222072 0.22647 0.195445 0.166585 0.173566 0.167786 0.140867 0.141732 0.167451 0.179165 0.180296 0.198126 0.228383 0.247316 0.263428 0.30541 0.360345 0.386894 0.386801 0.401648 0.438794 0.460619 0.459696 0.469582 0.486974 0.48515 0.481778 0.485943 0.472107 0.461703 0.484253 0.499328 0.483681 0.471862 0.473236 0.475291 0.48148 0.484539 0.477252 0.47669 0.490092 0.499342 0.496293 0.491684 0.488425 0.485535 0.496392 0.520118 0.530477 0.525082 0.523046 0.516864 0.495722 0.480979 0.488908 0.501842 0.499481 0.485694 0.477091 0.483629 0.498817 0.500283 0.47691 
0.616132 0.861284 0.900881 0.742827 0.447345 0.581156 0.561023 0.496378 0.552721 0.373379 0.316198 0.277838 0.274054 0.256154 0.200905 0.236048 0.215174 0.204605 0.206127 0.122897 0.169154 0.166851 0.124195 0.159032 0.150026 0.159702 0.177141 0.220662 0.27841 0.327979 0.39358 0.410235 0.448779 0.526935 0.505243 0.557998 0.540166 0.527594 0.529983 0.524017 0.536037 0.503133 0.554097 0.502418 0.52714 0.504225 0.513904 0.515865 0.472278 0.529262 0.489884 0.497786 0.462847 0.488193 0.479457 0.45362 0.45448 0.440142 0.47618 0.448637 0.436789 0.449505 0.478841 0.427853 0.436249 0.449391 0.449294 0.436432 0.422379 0.441432 0.447247 0.425687 0.417988 0.439199 0.457092 0.436255 0.399707 0.511173 0.496405 0.49716 0.473464 0.451188 0.431589 0.387261 0.391805 0.36738 0.389165 0.412416 0.330921 0.375028 0.397777 0.338945 0.384795 0.357674 0.377511 0.392621 
0.381091 0.422619 0.362261 0.419873 0.354922 0.322978 0.244789 0.198196 0.364776 0.286727 0.211474 0.232111 0.209017 0.247609 0.236383 0.233577 0.211767 0.173385 0.174907 0.199509 0.179193 0.157426 0.166487 0.140825 0.193826 0.220745 0.202287 0.245389 0.261362 0.354417 0.326198 0.403841 0.42029 0.426916 0.509411 0.471651 0.508292 0.500775 0.49304 0.528595 0.484784 0.518298 0.521164 0.494865 0.460801 0.490358 0.51049 0.482208 0.47089 0.501613 0.505804 0.496286 0.516639 0.475768 0.482755 0.500288 0.472698 0.486863 0.480792 0.496899 0.480302 0.419803 0.49489 0.525058 0.489588 0.534187 0.562908 0.547603 0.519698 0.509807 0.482363 0.493084 0.446333 0.480287 0.481198 0.451544 0.452915 0.44156 0.460949 0.466504 0.433454 0.428817 0.475016 0.442314 0.495277 0.41266 0.431665 0.593988 0.538158 0.755491 0.880622 0.702336 0.706636 0.501692 0.356598 0.461518 
0.187976 0.134206 0.108795 0.117382 0.177741 0.205764 0.146814 0.108306 0.158696 0.215202 0.222309 0.215789 0.245152 0.326848 0.371363 0.294679 0.239944 0.331773 0.38435 0.291912 0.264224 0.348511 0.35064 0.289532 0.301019 0.320026 0.290024 0.294627 0.333297 0.335139 0.305725 0.273928 0.274151 0.336073 0.388868 0.372366 0.364034 0.397001 0.395517 0.37988 0.422267 0.461226 0.44325 0.456714 0.528722 0.547895 0.486588 0.459329 0.521866 0.58663 0.574413 0.531284 0.532261 0.555207 0.548479 0.543064 0.573449 0.585415 0.55454 0.546236 0.569861 0.57296 0.570992 0.584144 0.569093 0.538165 0.549377 0.567697 0.543579 0.530263 0.568269 0.606875 0.600299 0.559485 0.530152 0.544543 0.559755 0.530807 0.518287 0.563131 0.585471 0.558109 0.54551 0.526651 0.463493 0.433587 0.462747 0.468229 0.451415 0.465266 0.465648 0.423944 0.42095 0.482021 0.500021 0.416812 
0.563815 0.62733 0.728906 0.815515 0.766647 0.654682 0.572863 0.481289 0.39992 0.376141 0.361676 0.346161 0.355805 0.349952 0.321054 0.318647 0.343834 0.372635 0.386236 0.359065 0.316872 0.31423 0.334508 0.330766 0.318031 0.329578 0.349971 0.341193 0.30443 0.284033 0.298869 0.30902 0.280923 0.240656 0.225409 0.218539 0.195515 0.189134 0.213541 0.213862 0.187096 0.182949 0.18422 0.17957 0.208235 0.239902 0.241731 0.2659 0.304827 0.309543 0.328598 0.382414 0.40113 0.386889 0.399926 0.440737 0.47497 0.469815 0.431909 0.428047 0.467046 0.479245 0.465975 0.471295 0.474565 0.468557 0.48167 0.491891 0.479031 0.479605 0.503077 0.513707 0.507044 0.507607 0.51723 0.520151 0.514288 0.513361 0.527384 0.556035 0.588026 0.595705 0.564234 0.537225 0.559583 0.582902 0.552542 0.52226 0.541842 0.569009 0.571494 0.557458 0.540959 0.550447 0.562517 0.511399 
0.599712 0.640217 0.688318 0.747085 0.802781 0.829771 0.813407 0.763435 0.705436 0.657768 0.619232 0.578029 0.526727 0.470246 0.420554 0.388156 0.377187 0.382423 0.391621 0.391428 0.377516 0.35952 0.351876 0.360048 0.373532 0.377106 0.367395 0.354668 0.351587 0.360062 0.372012 0.381004 0.384686 0.382497 0.373765 0.363212 0.362715 0.377109 0.39264 0.385083 0.349913 0.314247 0.311011 0.340716 0.36595 0.353174 0.309159 0.272169 0.268469 0.286591 0.298506 0.292512 0.279946 0.272239 0.265257 0.251407 0.235518 0.231804 0.243769 0.257578 0.2585 0.248237 0.243141 0.254632 0.278075 0.300014 0.311835 0.315871 0.319084 0.327858 0.346141 0.374056 0.406634 0.433156 0.445173 0.443871 0.439205 0.441715 0.453279 0.470231 0.489358 0.508813 0.524106 0.526288 0.513287 0.496824 0.494992 0.514342 0.539896 0.550646 0.539994 0.521393 0.512528 0.516332 0.522724 0.522287 
0.552598 0.62268 0.718197 0.741361 0.639505 0.556722 0.467123 0.412984 0.452483 0.479255 0.452772 0.439255 0.457424 0.474618 0.452078 0.396151 0.357482 0.343356 0.330069 0.328053 0.313335 0.300374 0.305357 0.27633 0.277181 0.300163 0.248265 0.21618 0.225185 0.202608 0.183103 0.167688 0.148797 0.138968 0.12622 0.127895 0.144553 0.146424 0.152693 0.185043 0.211195 0.228327 0.251309 0.279066 0.329967 0.37089 0.385374 0.407196 0.417956 0.425881 0.456108 0.468874 0.467956 0.489787 0.494055 0.481543 0.494675 0.482861 0.470144 0.485574 0.46467 0.466257 0.477903 0.464471 0.487148 0.468899 0.451898 0.493521 0.48494 0.490574 0.518448 0.51759 0.553981 0.571955 0.561818 0.577414 0.572123 0.555484 0.550003 0.535215 0.525336 0.520703 0.509394 0.51932 0.534529 0.51609 0.509362 0.508848 0.504386 0.524102 0.51549 0.496572 0.500526 0.480534 0.50763 0.509614 
0.494926 0.719719 0.80711 0.63466 0.361831 0.285846 0.441551 0.495786 0.508257 0.524007 0.493503 0.411847 0.301272 0.301793 0.255302 0.255135 0.241982 0.209324 0.245403 0.208514 0.220955 0.219223 0.182642 0.211223 0.205401 0.196018 0.155946 0.170997 0.182935 0.142584 0.192025 0.172045 0.175326 0.203334 0.225213 0.293575 0.333645 0.368906 0.413599 0.460738 0.484928 0.518738 0.542975 0.558729 0.562084 0.552281 0.565323 0.554051 0.54411 0.555281 0.547064 0.54683 0.547393 0.537987 0.547267 0.559562 0.539022 0.542475 0.549023 0.525266 0.539364 0.536133 0.506916 0.515932 0.51168 0.5018 0.494629 0.471821 0.484572 0.48803 0.467755 0.491031 0.485517 0.501562 0.522082 0.529342 0.514223 0.468139 0.461475 0.4511 0.434571 0.425918 0.421335 0.424759 0.418502 0.420481 0.407346 0.407256 0.400881 0.400096 0.412323 0.398819 0.403084 0.4039 0.426089 0.453057 
0.57169 0.699348 0.577596 0.632985 0.453232 0.346355 0.475594 0.469651 0.437905 0.449336 0.401889 0.286956 0.293964 0.265914 0.25297 0.250806 0.238184 0.227796 0.222812 0.215426 0.217366 0.199173 0.182921 0.192318 0.170704 0.15723 0.15434 0.136301 0.135617 0.137055 0.135645 0.150528 0.158808 0.209143 0.22728 0.274096 0.337268 0.35701 0.416048 0.440942 0.465305 0.48993 0.506329 0.519166 0.508534 0.517784 0.50778 0.512783 0.508016 0.502857 0.522465 0.518648 0.515656 0.518194 0.532747 0.519591 0.525574 0.531833 0.522625 0.506055 0.507872 0.526045 0.520152 0.499729 0.501367 0.516048 0.500521 0.499045 0.50803 0.480704 0.489972 0.499853 0.511058 0.538775 0.55656 0.550925 0.537196 0.515437 0.498872 0.492984 0.481246 0.492431 0.482296 0.468184 0.482768 0.471381 0.479015 0.469602 0.472364 0.483143 0.475481 0.475072 0.486785 0.471426 0.507372 0.544231 
0.639324 0.664987 0.52907 0.596054 0.546555 0.368442 0.31048 0.254311 0.258276 0.255204 0.224543 0.223496 0.191759 0.205066 0.199662 0.17742 0.147429 0.156407 0.154536 0.141565 0.131554 0.119392 0.114031 0.111043 0.140224 0.149146 0.203851 0.250346 0.258751 0.335677 0.388802 0.430773 0.441576 0.483281 0.510396 0.528754 0.510754 0.526491 0.539511 0.515262 0.527694 0.525823 0.521351 0.520509 0.508518 0.508809 0.5174 0.519827 0.508315 0.513652 0.502711 0.521062 0.50665 0.494334 0.508964 0.498856 0.508597 0.503724 0.492596 0.504665 0.50347 0.484077 0.48678 0.502833 0.488541 0.496477 0.478752 0.49416 0.490684 0.520804 0.529166 0.54041 0.539328 0.529225 0.518239 0.480842 0.476573 0.473131 0.475623 0.440396 0.453934 0.46329 0.468286 0.440064 0.444438 0.451067 0.456824 0.447425 0.459115 0.460918 0.436318 0.444391 0.451366 0.453716 0.486497 0.490613 
0.568744 0.661859 0.547749 0.614289 0.566272 0.5008 0.419007 0.33873 0.357387 0.324357 0.338045 0.291757 0.28259 0.286847 0.253082 0.276916 0.227964 0.199509 0.208165 0.164281 0.143603 0.140978 0.142793 0.143142 0.120021 0.124433 0.182712 0.224473 0.250946 0.301004 0.324025 0.384094 0.44035 0.463935 0.477932 0.516533 0.535439 0.531199 0.563536 0.534893 0.544386 0.566175 0.512017 0.536419 0.504574 0.513444 0.517896 0.49283 0.513947 0.491375 0.487586 0.511874 0.489874 0.467377 0.473557 0.477039 0.506176 0.473558 0.442073 0.454263 0.4617 0.448956 0.439941 0.456673 0.489798 0.518781 0.521911 0.529452 0.501029 0.448702 0.458754 0.42957 0.376101 0.394185 0.370169 0.377326 0.413959 0.394954 0.368033 0.377807 0.410926 0.379274 0.364513 0.371508 0.384343 0.406363 0.350231 0.453449 0.492994 0.744377 0.887114 0.672177 0.603384 0.377137 0.318372 0.461197 
0.740076 0.761118 0.749431 0.373162 0.232264 0.200863 0.191508 0.144092 0.131651 0.105123 0.0794599 0.0813169 0.0516888 0.054188 0.0658187 0.0898898 0.163751 0.235839 0.352225 0.433996 0.49258 0.561818 0.5774 0.583223 0.569135 0.549354 0.538637 0.52071 0.519987 0.518595 0.504069 0.499313 0.498873 0.514247 0.473758 0.471527 0.482604 0.447578 0.459322 0.445008 0.432641 0.445781 0.424008 0.436477 0.438585 0.417045 0.44175 0.423976 0.437848 0.447848 0.432988 0.452961 0.432481 0.443003 0.440731 0.428996 0.425849 0.420573 0.437351 0.422626 0.429638 0.439444 0.430242 0.446119 0.440631 0.437927 0.462535 0.440039 0.455117 0.447137 0.44795 0.456542 0.442666 0.453716 0.445995 0.440522 0.44337 0.449851 0.46003 0.456133 0.484271 0.530121 0.567208 0.561134 0.469707 0.438801 0.439959 0.404436 0.422856 0.432024 0.403065 0.420241 0.405702 0.430633 0.425184 0.496368 
0.50381 0.546486 0.811229 0.851342 0.675877 0.450017 0.40693 0.530143 0.546125 0.559358 0.525399 0.45199 0.371887 0.321166 0.310283 0.291702 0.278256 0.25015 0.262493 0.26717 0.229053 0.210274 0.214797 0.211781 0.175074 0.16544 0.18718 0.150891 0.119769 0.160749 0.139093 0.137599 0.185742 0.220019 0.236467 0.285307 0.379026 0.426307 0.46504 0.51518 0.547606 0.569945 0.568088 0.583125 0.574399 0.55902 0.544712 0.533916 0.550656 0.521737 0.504955 0.5237 0.518416 0.519764 0.519593 0.519126 0.505773 0.511483 0.507838 0.494703 0.484274 0.480474 0.499261 0.467829 0.466926 0.469565 0.436006 0.457355 0.438744 0.445354 0.447487 0.436022 0.447078 0.449459 0.454305 0.498084 0.508129 0.494757 0.47255 0.44425 0.444765 0.410866 0.395938 0.398267 0.388139 0.398108 0.384059 0.39187 0.387215 0.383569 0.396279 0.395815 0.397079 0.392153 0.4149 0.423984 
0.397188 0.579648 0.740705 0.775206 0.647827 0.395025 0.22136 0.298574 0.403193 0.378837 0.37186 0.343864 0.346658 0.331481 0.259295 0.267338 0.254716 0.231259 0.258765 0.189986 0.203125 0.269055 0.190475 0.155234 0.190028 0.176219 0.164952 0.154941 0.128985 0.174488 0.179459 0.154187 0.196521 0.253724 0.244258 0.282523 0.37322 0.423294 0.433735 0.442286 0.482012 0.497418 0.540284 0.536541 0.540632 0.573547 0.529832 0.521099 0.535215 0.518517 0.514839 0.508315 0.495366 0.497287 0.526566 0.513046 0.490427 0.496068 0.513665 0.519933 0.519792 0.496755 0.493288 0.529349 0.514557 0.481204 0.505948 0.510074 0.503766 0.515898 0.474285 0.505374 0.545085 0.51784 0.583055 0.56644 0.534588 0.571634 0.495599 0.467634 0.521857 0.472592 0.415522 0.479675 0.471169 0.434193 0.433414 0.434297 0.451372 0.4482 0.439159 0.429028 0.452786 0.441542 0.433716 0.481247 
0.430557 0.599503 0.802321 0.821868 0.742757 0.529741 0.318045 0.397104 0.493875 0.453225 0.475137 0.45089 0.375863 0.372241 0.323074 0.267715 0.295617 0.295885 0.23683 0.297336 0.255609 0.18859 0.248419 0.21516 0.176568 0.202036 0.185853 0.142458 0.166864 0.146396 0.111713 0.126569 0.216333 0.203027 0.203963 0.271066 0.288873 0.352274 0.366497 0.407973 0.522768 0.524116 0.483112 0.526857 0.593709 0.55504 0.566133 0.572276 0.551944 0.546888 0.537079 0.538494 0.495655 0.523087 0.55485 0.509726 0.505508 0.519272 0.498551 0.534148 0.461944 0.499792 0.51775 0.46831 0.502438 0.476385 0.47256 0.461331 0.503044 0.468945 0.436921 0.481593 0.433872 0.469041 0.521286 0.512614 0.526156 0.502154 0.47302 0.465974 0.436244 0.402794 0.427039 0.42793 0.425783 0.408658 0.412174 0.425214 0.399133 0.388389 0.402897 0.417891 0.419912 0.404281 0.410273 0.427217 
0.583139 0.521272 0.467261 0.650773 0.51257 0.191159 0.479153 0.460583 0.369545 0.449578 0.36409 0.330566 0.209436 0.360598 0.169615 0.183466 0.316104 0.241214 0.278284 0.146717 0.249661 0.109465 0.0687927 0.293205 0.225646 0.266388 0.203809 0.299302 0.352256 0.513295 0.347097 0.530363 0.652797 0.458414 0.526642 0.671688 0.518414 0.437693 0.590958 0.45757 0.3977 0.553993 0.633404 0.435335 0.44442 0.403001 0.488943 0.464266 0.516568 0.449386 0.396265 0.48573 0.386458 0.50186 0.357616 0.407727 0.459779 0.490902 0.490423 0.394493 0.450171 0.402555 0.437471 0.403834 0.459633 0.51473 0.442684 0.597381 0.468068 0.493369 0.406791 0.459104 0.509575 0.347754 0.401159 0.36849 0.405376 0.370046 0.340677 0.396547 0.342352 0.429747 0.326273 0.414075 0.325183 0.346157 0.478963 0.298002 0.404168 0.672652 0.839139 0.853409 0.705547 0.47933 0.245947 0.352839 
0.405836 0.452729 0.437831 0.410831 0.449949 0.352134 0.248726 0.347835 0.328222 0.245668 0.253934 0.267073 0.278005 0.220326 0.238226 0.205973 0.182028 0.22115 0.206308 0.147415 0.167255 0.163011 0.151059 0.139554 0.171989 0.207593 0.191983 0.275576 0.264769 0.33983 0.380704 0.471447 0.5008 0.4598 0.536816 0.559922 0.556583 0.562014 0.579565 0.586322 0.554171 0.521896 0.483103 0.572039 0.512947 0.482139 0.506488 0.48653 0.501262 0.5285 0.503815 0.487178 0.497646 0.509631 0.509654 0.446081 0.53357 0.46578 0.443963 0.484271 0.476416 0.432931 0.459851 0.502766 0.484792 0.513479 0.518264 0.569889 0.553987 0.501333 0.506853 0.457126 0.453512 0.403277 0.430835 0.4557 0.413967 0.426662 0.410264 0.400762 0.420615 0.42229 0.384611 0.440727 0.426968 0.372874 0.428186 0.405998 0.566217 0.634828 0.753341 0.880817 0.668547 0.431127 0.249424 0.349329 
0.50555 0.555121 0.640022 0.699013 0.668561 0.652937 0.657182 0.588082 0.496326 0.432796 0.389644 0.396766 0.408054 0.36828 0.339484 0.345569 0.352115 0.357903 0.345036 0.314754 0.308647 0.307844 0.282317 0.273593 0.295378 0.291747 0.259016 0.249829 0.25177 0.230407 0.213261 0.201882 0.172715 0.16188 0.176191 0.163723 0.139205 0.150626 0.173888 0.180115 0.196381 0.225381 0.229151 0.225451 0.26583 0.324241 0.347191 0.360822 0.398433 0.420266 0.412234 0.42357 0.454575 0.463727 0.45764 0.463832 0.484143 0.497508 0.488034 0.48415 0.502125 0.505 0.496942 0.509987 0.519194 0.512284 0.509351 0.502506 0.502935 0.526129 0.538704 0.536177 0.538193 0.536466 0.548117 0.564709 0.542567 0.524161 0.540012 0.541533 0.544648 0.560364 0.549026 0.551661 0.56806 0.526945 0.486924 0.502893 0.50458 0.490455 0.502435 0.506238 0.498718 0.513213 0.515152 0.467843 
0.443211 0.594309 0.734296 0.690621 0.627763 0.402994 0.377962 0.499662 0.424912 0.434817 0.433379 0.349157 0.317925 0.318168 0.297921 0.293575 0.282451 0.271317 0.259449 0.248503 0.240195 0.217003 0.200626 0.19807 0.185574 0.159199 0.150961 0.142779 0.116195 0.117507 0.111322 0.123441 0.144804 0.158375 0.19807 0.238422 0.286616 0.350903 0.389534 0.420475 0.466591 0.488714 0.497145 0.505437 0.495728 0.513425 0.494951 0.48668 0.495769 0.48098 0.47988 0.475309 0.485464 0.476074 0.465734 0.488312 0.481896 0.474869 0.478244 0.480247 0.468763 0.473836 0.493535 0.481302 0.471545 0.484016 0.498523 0.498262 0.488522 0.497656 0.510289 0.503313 0.501797 0.521558 0.555009 0.562154 0.570838 0.575502 0.542839 0.526457 0.520641 0.51227 0.499721 0.487435 0.501962 0.498664 0.486493 0.476318 0.496555 0.499105 0.495771 0.499176 0.501849 0.501703 0.517813 0.520865 
0.795116 0.82096 0.822035 0.879016 0.780581 0.613005 0.480097 0.38983 0.353398 0.332094 0.317393 0.307959 0.284764 0.271331 0.260398 0.257704 0.246939 0.244691 0.227391 0.238394 0.211502 0.210176 0.190573 0.179822 0.202957 0.189511 0.200612 0.221178 0.2412 0.277544 0.320916 0.358012 0.403694 0.452824 0.464809 0.490825 0.518038 0.526626 0.526714 0.5401 0.541552 0.532181 0.531498 0.515222 0.513872 0.512723 0.504877 0.496005 0.500482 0.501386 0.495884 0.508802 0.513644 0.522997 0.515882 0.535263 0.545737 0.494965 0.506583 0.507336 0.506042 0.474466 0.448828 0.415833 0.413958 0.417976 0.400369 0.400613 0.389086 0.393763 0.390394 0.379812 0.380768 0.382638 0.38555 0.375326 0.381184 0.375556 0.378333 0.368578 0.365852 0.373532 0.381218 0.37247 0.363544 0.375827 0.383295 0.378527 0.387304 0.398538 0.41569 0.413284 0.415753 0.414836 0.456571 0.503102 
0.425981 0.676924 0.856132 0.67395 0.60048 0.418569 0.292005 0.430319 0.473755 0.422019 0.4143 0.451028 0.3523 0.269795 0.300356 0.302326 0.266053 0.264643 0.282167 0.239734 0.246897 0.230645 0.199327 0.208919 0.190768 0.207146 0.191913 0.164728 0.143422 0.161629 0.172673 0.133788 0.162885 0.194608 0.191564 0.250611 0.318577 0.330978 0.361616 0.445487 0.457814 0.47304 0.541284 0.521781 0.551545 0.568465 0.56429 0.553692 0.537186 0.569623 0.56281 0.512727 0.498836 0.554557 0.546601 0.515105 0.546544 0.517837 0.58642 0.518781 0.517239 0.533415 0.521445 0.51457 0.490916 0.535969 0.485353 0.518016 0.503009 0.461555 0.488436 0.460059 0.475437 0.521783 0.541822 0.544667 0.515509 0.489063 0.483502 0.466648 0.444585 0.454913 0.431691 0.413935 0.431932 0.42884 0.41087 0.43955 0.400391 0.380877 0.430685 0.403615 0.403749 0.417164 0.401113 0.423691 
0.440252 0.454573 0.721534 0.777049 0.626813 0.496762 0.334917 0.391367 0.491149 0.466927 0.4387 0.413087 0.368371 0.292532 0.306336 0.2971 0.267296 0.270437 0.264029 0.262912 0.243322 0.24363 0.23158 0.213275 0.216515 0.18556 0.174963 0.149705 0.137809 0.144957 0.110177 0.0944695 0.128454 0.147722 0.169838 0.222435 0.285534 0.320715 0.377571 0.451238 0.477166 0.508161 0.521367 0.541397 0.540536 0.521857 0.539899 0.542807 0.499172 0.50345 0.544791 0.530314 0.520078 0.530078 0.523446 0.544608 0.546097 0.521767 0.541232 0.538707 0.52148 0.515375 0.515233 0.511592 0.492508 0.491886 0.486969 0.474583 0.490198 0.498693 0.478758 0.488804 0.49755 0.512009 0.529914 0.550801 0.553956 0.516907 0.508137 0.498849 0.470872 0.4538 0.44942 0.455277 0.434245 0.452156 0.439272 0.43345 0.435471 0.427339 0.443914 0.411857 0.432056 0.443631 0.43835 0.482208 
0.465021 0.565337 0.77353 0.965806 0.755072 0.479428 0.280853 0.272183 0.374695 0.356183 0.325018 0.283682 0.363385 0.336671 0.277056 0.341921 0.280839 0.287959 0.287298 0.260217 0.247469 0.239301 0.24416 0.201352 0.212773 0.205359 0.176582 0.181371 0.172017 0.16054 0.180534 0.177811 0.183801 0.256503 0.267477 0.28049 0.365983 0.40282 0.43954 0.489643 0.506437 0.531309 0.555334 0.560869 0.575194 0.55337 0.567641 0.565044 0.528152 0.53616 0.529148 0.513225 0.515962 0.499546 0.501039 0.528968 0.505107 0.511558 0.519545 0.485864 0.53607 0.512425 0.498681 0.509728 0.487393 0.485708 0.472743 0.496709 0.451803 0.456841 0.464896 0.447922 0.456204 0.506384 0.548317 0.541186 0.508024 0.497381 0.475437 0.451369 0.456675 0.420285 0.3995 0.409869 0.414386 0.421309 0.413779 0.389573 0.401011 0.412977 0.404575 0.411392 0.41581 0.394953 0.398693 0.428875 
0.523028 0.537606 0.561637 0.652993 0.750576 0.771547 0.723266 0.667933 0.622234 0.540242 0.438938 0.417653 0.471165 0.482049 0.433954 0.413848 0.442296 0.465221 0.445142 0.396118 0.360397 0.349053 0.342683 0.341764 0.34299 0.329752 0.317399 0.320275 0.311783 0.285783 0.276762 0.28003 0.252384 0.213541 0.207621 0.192527 0.144371 0.134821 0.160595 0.147904 0.131288 0.160107 0.180017 0.16794 0.175772 0.212298 0.243881 0.271778 0.304433 0.322305 0.336981 0.368717 0.383964 0.393111 0.438475 0.457813 0.425752 0.437736 0.482056 0.475211 0.461636 0.482271 0.484412 0.46938 0.481251 0.498002 0.488885 0.479375 0.486166 0.487533 0.48762 0.502157 0.503953 0.48802 0.490187 0.502328 0.501821 0.500328 0.498355 0.49866 0.514785 0.528702 0.536724 0.55424 0.549515 0.51161 0.494306 0.504271 0.500288 0.493128 0.504254 0.503876 0.485067 0.491433 0.51257 0.489377 
0.510339 0.659318 0.961492 0.938831 0.649223 0.351125 0.463139 0.591726 0.541428 0.540177 0.522035 0.36291 0.321995 0.343877 0.339156 0.175382 0.283763 0.252887 0.236258 0.285468 0.210692 0.211363 0.080535 0.149384 0.116893 0.118555 0.119323 0.152581 0.203223 0.242946 0.295116 0.354728 0.405665 0.421316 0.462117 0.5015 0.518113 0.510634 0.510353 0.536029 0.50216 0.492915 0.521147 0.505388 0.536355 0.478661 0.454878 0.507096 0.50784 0.485733 0.490387 0.483009 0.470284 0.458599 0.463146 0.459209 0.442418 0.428834 0.465316 0.429894 0.441271 0.471317 0.400761 0.451901 0.417456 0.419125 0.42655 0.427283 0.388946 0.422379 0.394327 0.411793 0.412809 0.410819 0.422994 0.413434 0.487185 0.496631 0.530603 0.528954 0.484323 0.413055 0.407817 0.39501 0.393308 0.363118 0.403153 0.387657 0.370273 0.41738 0.40839 0.42823 0.400489 0.390416 0.470172 0.461828 
0.489749 0.397813 0.442035 0.397273 0.40464 0.380183 0.267156 0.366728 0.274277 0.234163 0.350583 0.245612 0.275087 0.295134 0.218232 0.244481 0.203921 0.210343 0.239678 0.226875 0.162033 0.182321 0.173874 0.193239 0.189707 0.0767931 0.21523 0.176052 0.152427 0.316622 0.27908 0.33147 0.347881 0.413517 0.428936 0.43535 0.48266 0.463458 0.532643 0.451095 0.448194 0.497128 0.48246 0.484481 0.451626 0.47334 0.503484 0.472729 0.478234 0.482624 0.461799 0.461349 0.482787 0.478515 0.449169 0.461784 0.493781 0.514846 0.545295 0.476927 0.461024 0.452577 0.469467 0.496021 0.467778 0.519561 0.542975 0.557989 0.556623 0.503728 0.480862 0.47145 0.450597 0.46793 0.437261 0.425334 0.460614 0.443567 0.447101 0.460798 0.456292 0.480566 0.476122 0.460506 0.486455 0.481334 0.483379 0.484745 0.526957 0.538127 0.71123 0.871923 0.80623 0.759149 0.594086 0.446722 
0.571145 0.626562 0.642256 0.783052 0.877787 0.779241 0.660728 0.576926 0.456382 0.396956 0.398794 0.402409 0.418589 0.41692 0.407232 0.395511 0.363589 0.340351 0.310705 0.283085 0.276413 0.254506 0.25258 0.274724 0.269167 0.274193 0.282582 0.249284 0.230114 0.236718 0.219963 0.214462 0.231957 0.200681 0.159967 0.197386 0.227796 0.179836 0.163667 0.219824 0.244663 0.237556 0.279597 0.323923 0.317382 0.340114 0.407507 0.432315 0.412276 0.404327 0.43141 0.482523 0.508128 0.484838 0.468592 0.479925 0.476351 0.472145 0.474942 0.464216 0.475038 0.465377 0.415496 0.419818 0.445411 0.450044 0.454617 0.438623 0.461448 0.498312 0.473686 0.486849 0.540802 0.565868 0.591866 0.592633 0.568842 0.57747 0.566496 0.512801 0.504034 0.514712 0.490279 0.50816 0.52758 0.482944 0.477227 0.492568 0.459829 0.452145 0.465826 0.438381 0.407223 0.426888 0.453331 0.436635 
0.526547 0.699292 0.82843 0.648692 0.441791 0.242401 0.243727 0.3884 0.366422 0.374043 0.349949 0.346882 0.355982 0.270828 0.274877 0.270382 0.248852 0.244914 0.233102 0.247986 0.194301 0.198112 0.19962 0.202441 0.226149 0.16054 0.164212 0.168735 0.177071 0.150584 0.186007 0.170634 0.196353 0.253194 0.256168 0.288522 0.371363 0.38308 0.39852 0.494601 0.472198 0.496324 0.527845 0.494102 0.53998 0.576004 0.514515 0.553558 0.537154 0.537017 0.528922 0.512523 0.569107 0.498993 0.505387 0.514715 0.540973 0.53078 0.510268 0.523063 0.526379 0.553997 0.540321 0.48324 0.525111 0.535216 0.475333 0.504832 0.508329 0.494261 0.496779 0.462181 0.529528 0.555239 0.527119 0.583907 0.531664 0.514042 0.526131 0.47527 0.494902 0.462681 0.453015 0.446535 0.448334 0.47756 0.438813 0.394133 0.43487 0.451802 0.465766 0.445048 0.383076 0.44528 0.473653 0.414557 
0.646486 0.787353 0.658243 0.654878 0.462521 0.423931 0.543233 0.511217 0.478247 0.444155 0.385413 0.304499 0.313845 0.290391 0.277544 0.261376 0.265732 0.263959 0.244761 0.23225 0.221848 0.224976 0.203139 0.181148 0.175703 0.161712 0.144385 0.128524 0.128552 0.109074 0.128342 0.128035 0.153307 0.195781 0.223398 0.302065 0.358039 0.386963 0.438479 0.483226 0.504824 0.514127 0.531326 0.529352 0.515512 0.513207 0.50856 0.496602 0.500512 0.503403 0.502991 0.501703 0.494052 0.502119 0.502357 0.505033 0.512449 0.505616 0.513669 0.494523 0.502219 0.513914 0.503454 0.494782 0.490261 0.503252 0.484334 0.47855 0.489944 0.488637 0.490205 0.477167 0.496532 0.510116 0.520983 0.552804 0.540804 0.505591 0.501685 0.495822 0.46914 0.45441 0.454597 0.461366 0.448114 0.452274 0.464139 0.449466 0.450586 0.446619 0.448448 0.452175 0.454396 0.441429 0.453921 0.485236 
0.682872 0.713394 0.701484 0.589995 0.299455 0.275981 0.210539 0.188827 0.181511 0.133494 0.136594 0.0687927 0.0600243 0.00740006 0 0.00839139 0.0671032 0.145697 0.245529 0.359688 0.427837 0.520223 0.539533 0.558909 0.555728 0.543141 0.527137 0.528324 0.512143 0.512026 0.501191 0.493859 0.495723 0.48611 0.479558 0.484731 0.466179 0.468083 0.47544 0.464671 0.466986 0.460989 0.45328 0.460882 0.452427 0.455256 0.457134 0.453616 0.46137 0.451065 0.45002 0.445274 0.442507 0.455278 0.450382 0.443015 0.453829 0.451481 0.456368 0.458812 0.443255 0.447697 0.452372 0.446042 0.463991 0.43626 0.451782 0.447083 0.43542 0.451858 0.436616 0.443144 0.442971 0.441756 0.454305 0.446345 0.439956 0.452328 0.441953 0.451805 0.453082 0.464478 0.517186 0.516855 0.514993 0.488274 0.442869 0.42604 0.435664 0.427334 0.420862 0.434246 0.410178 0.446909 0.433981 0.448832 
0.616984 0.718141 0.758269 0.781935 0.781419 0.717457 0.626744 0.542235 0.458568 0.427747 0.445672 0.428457 0.415282 0.440827 0.430307 0.416353 0.428085 0.378925 0.318559 0.332376 0.348056 0.332687 0.317676 0.294974 0.289967 0.312889 0.313034 0.287646 0.261125 0.232627 0.218651 0.22182 0.211781 0.188311 0.176303 0.178886 0.179542 0.169601 0.165761 0.183145 0.201379 0.200123 0.201142 0.230463 0.267296 0.288554 0.310181 0.329935 0.339509 0.371758 0.41057 0.407646 0.408974 0.445797 0.456678 0.440228 0.446682 0.464624 0.468874 0.464998 0.470914 0.493484 0.498926 0.471119 0.463529 0.499041 0.515962 0.489513 0.4816 0.508831 0.515441 0.503714 0.508817 0.515505 0.521837 0.533402 0.528251 0.519302 0.514508 0.495284 0.49724 0.526919 0.518404 0.484842 0.487259 0.496771 0.475358 0.46349 0.481726 0.4866 0.471705 0.472643 0.487099 0.501716 0.510621 0.490412 
0.496821 0.62444 0.8174 0.904455 0.71849 0.460492 0.298382 0.428632 0.54326 0.525022 0.470648 0.454265 0.506434 0.319792 0.31351 0.343827 0.299388 0.307251 0.28736 0.2829 0.294271 0.239916 0.226512 0.244593 0.220424 0.214392 0.187236 0.175731 0.179891 0.141676 0.16121 0.127742 0.143464 0.179989 0.156504 0.238184 0.296 0.287414 0.367443 0.428909 0.428176 0.480881 0.516395 0.523919 0.548074 0.534972 0.563047 0.552677 0.524232 0.551472 0.52253 0.50784 0.506134 0.494164 0.522267 0.52756 0.514651 0.493877 0.516798 0.514575 0.499168 0.519935 0.473949 0.468628 0.516407 0.475046 0.461495 0.475323 0.451823 0.470336 0.474456 0.451408 0.455699 0.475629 0.538751 0.514845 0.502266 0.49895 0.461742 0.460065 0.430505 0.447412 0.421335 0.3948 0.40178 0.414998 0.414251 0.386239 0.403358 0.391272 0.429837 0.408379 0.355551 0.416589 0.387712 0.397569 
0.357229 0.329283 0.347313 0.345998 0.331355 0.359269 0.379823 0.319652 0.260566 0.262786 0.263009 0.257606 0.2776 0.266556 0.223356 0.23475 0.283618 0.274612 0.217325 0.191941 0.199313 0.195739 0.193896 0.205708 0.202887 0.190084 0.186831 0.188744 0.206713 0.227908 0.208067 0.181302 0.218497 0.282807 0.299179 0.298371 0.339068 0.383425 0.391477 0.407671 0.443008 0.454678 0.467103 0.512241 0.531174 0.498849 0.495728 0.540836 0.542513 0.500362 0.508845 0.53702 0.511568 0.494992 0.51252 0.495683 0.478534 0.504165 0.50001 0.46237 0.46365 0.471947 0.440903 0.437179 0.496345 0.533115 0.51001 0.509672 0.556994 0.57592 0.559233 0.569791 0.602533 0.611092 0.601374 0.596236 0.586085 0.571648 0.571969 0.573212 0.561623 0.561023 0.568032 0.564862 0.573631 0.579914 0.547485 0.520349 0.53116 0.541239 0.550737 0.55657 0.539245 0.529246 0.548706 0.509776 
0.682495 0.726309 0.631561 0.697072 0.671688 0.515476 0.400172 0.345559 0.314959 0.29499 0.286874 0.256517 0.246352 0.244872 0.228704 0.220466 0.218972 0.194189 0.171151 0.179863 0.163346 0.132908 0.120761 0.107371 0.115497 0.129585 0.140573 0.147708 0.200681 0.256936 0.287251 0.351689 0.414084 0.450686 0.48218 0.496005 0.513171 0.544572 0.549201 0.528695 0.524124 0.549869 0.526142 0.505006 0.506829 0.514249 0.536403 0.501761 0.495211 0.515327 0.50979 0.498806 0.492417 0.507164 0.489833 0.504094 0.500665 0.460235 0.487844 0.488887 0.477252 0.468999 0.481803 0.469628 0.458141 0.454726 0.470714 0.466115 0.450555 0.461291 0.471581 0.520142 0.533695 0.516302 0.51246 0.502603 0.502181 0.463473 0.448244 0.448106 0.446308 0.436537 0.427153 0.454194 0.431071 0.445301 0.434234 0.439724 0.446978 0.432767 0.451842 0.434846 0.442665 0.441787 0.42642 0.460389 
0.591782 0.77205 0.808282 0.657768 0.401547 0.385323 0.571313 0.56119 0.564792 0.575962 0.444768 0.375467 0.312316 0.301789 0.309316 0.285747 0.275981 0.276455 0.266891 0.241116 0.238352 0.219628 0.19902 0.185993 0.163988 0.179877 0.158054 0.133103 0.145809 0.137432 0.134793 0.148602 0.162271 0.206266 0.249578 0.28808 0.356333 0.406889 0.439582 0.478774 0.514966 0.538418 0.526945 0.536273 0.540004 0.523042 0.520965 0.541997 0.543878 0.520819 0.52454 0.54194 0.532842 0.520976 0.542665 0.540571 0.508997 0.516513 0.510737 0.507558 0.489565 0.505167 0.465548 0.438071 0.467341 0.444248 0.460923 0.430439 0.423992 0.463666 0.439743 0.460362 0.448785 0.387479 0.439081 0.494615 0.496313 0.534169 0.498579 0.491909 0.507319 0.416804 0.398979 0.427541 0.498199 0.435019 0.411811 0.443004 0.432119 0.419149 0.377254 0.457031 0.473245 0.388449 0.433265 0.439939 
0.441869 0.474873 0.679396 0.863671 0.792114 0.724047 0.533292 0.277223 0.344423 0.408566 0.33709 0.347277 0.331568 0.356017 0.382386 0.279513 0.289347 0.329754 0.28916 0.26051 0.271652 0.253724 0.232544 0.265579 0.185434 0.18341 0.233172 0.13813 0.192402 0.16033 0.125634 0.178006 0.170495 0.199774 0.21766 0.233535 0.319131 0.376624 0.41245 0.443956 0.491287 0.549925 0.545621 0.568758 0.589576 0.587356 0.578266 0.552952 0.57444 0.542542 0.518328 0.571173 0.509716 0.496919 0.559011 0.510639 0.4932 0.488608 0.516244 0.481705 0.48256 0.479545 0.492242 0.507952 0.453054 0.478163 0.464929 0.473674 0.493988 0.444297 0.471823 0.45874 0.468497 0.517492 0.538378 0.528486 0.508831 0.503936 0.476081 0.461226 0.423998 0.405505 0.424362 0.390425 0.409109 0.425254 0.403063 0.378217 0.377461 0.393232 0.400665 0.387924 0.402001 0.387284 0.381106 0.450515 
0.482022 0.514958 0.750981 0.881613 0.680485 0.529835 0.333359 0.306643 0.469287 0.47562 0.415029 0.409329 0.424777 0.305801 0.284144 0.303905 0.262004 0.287351 0.26368 0.256154 0.246813 0.215677 0.210483 0.199802 0.207076 0.135938 0.112551 0.173497 0.145697 0.116181 0.13584 0.142123 0.17217 0.213108 0.255288 0.311476 0.321998 0.375986 0.470961 0.465058 0.49107 0.541126 0.523725 0.560255 0.565323 0.531963 0.556416 0.544245 0.535791 0.50616 0.51303 0.51121 0.485277 0.528524 0.485649 0.491906 0.507925 0.504312 0.483541 0.502522 0.498951 0.461253 0.521414 0.481991 0.454854 0.496227 0.447709 0.472181 0.470016 0.460143 0.465942 0.455154 0.459658 0.490682 0.53653 0.523204 0.563606 0.56503 0.492625 0.47575 0.46809 0.470664 0.427551 0.431482 0.418857 0.433988 0.4273 0.465054 0.403887 0.383157 0.475849 0.425535 0.425605 0.44255 0.425362 0.453528 
0.440061 0.649432 0.887086 0.821756 0.7372 0.51541 0.24733 0.364334 0.447036 0.371126 0.37713 0.410235 0.414026 0.325216 0.304887 0.347083 0.313437 0.275338 0.312873 0.25385 0.282631 0.302274 0.228871 0.214448 0.223999 0.193449 0.133299 0.216082 0.179752 0.117033 0.149705 0.165915 0.151492 0.232362 0.235797 0.316061 0.376119 0.347267 0.462846 0.472928 0.524718 0.570419 0.548422 0.592996 0.542268 0.584019 0.589632 0.538662 0.554823 0.512131 0.549406 0.532929 0.48586 0.500392 0.4861 0.555165 0.510225 0.466943 0.480453 0.516515 0.506515 0.439638 0.509831 0.490453 0.471656 0.493298 0.463622 0.469068 0.39267 0.487061 0.471821 0.428887 0.447487 0.490194 0.537638 0.543244 0.554667 0.500982 0.436182 0.467339 0.444963 0.388023 0.404785 0.388689 0.393108 0.413853 0.428008 0.39101 0.364572 0.401998 0.40111 0.378911 0.397763 0.411924 0.369804 0.365988 
0.636252 0.728823 0.700186 0.637536 0.553757 0.471799 0.399032 0.387782 0.418893 0.404515 0.365128 0.3808 0.402395 0.391835 0.377104 0.338422 0.291815 0.292337 0.305754 0.286871 0.274487 0.290973 0.293315 0.27154 0.264825 0.27168 0.259281 0.231734 0.213275 0.210427 0.213583 0.207886 0.190293 0.179375 0.180352 0.174265 0.166446 0.175423 0.190307 0.200542 0.214853 0.236523 0.259826 0.282273 0.309277 0.344567 0.37793 0.397991 0.418161 0.452063 0.471274 0.45949 0.458428 0.484775 0.500274 0.497723 0.502309 0.503119 0.490015 0.491067 0.49856 0.486944 0.486606 0.500996 0.490606 0.477454 0.490196 0.498079 0.488523 0.482983 0.485825 0.492344 0.503514 0.510124 0.507966 0.511705 0.52343 0.535173 0.552444 0.567766 0.566775 0.571494 0.596096 0.601918 0.578685 0.57331 0.585973 0.574036 0.555332 0.5626 0.560534 0.543491 0.562921 0.571299 0.498706 0.428656 
0.517587 0.639324 0.799779 0.831753 0.666592 0.384248 0.388147 0.501891 0.490232 0.478194 0.466732 0.453431 0.375901 0.366175 0.34337 0.328499 0.318281 0.315406 0.308874 0.28327 0.264392 0.259603 0.232851 0.212019 0.204716 0.170816 0.144455 0.135393 0.131805 0.10159 0.102456 0.109298 0.120649 0.132084 0.206964 0.257578 0.274822 0.388568 0.429716 0.439698 0.490962 0.527066 0.564806 0.512272 0.541352 0.538152 0.539576 0.529621 0.497829 0.528169 0.508738 0.499175 0.506391 0.514894 0.514895 0.500413 0.532492 0.513137 0.473663 0.530018 0.502804 0.477874 0.500712 0.488068 0.494338 0.483718 0.485124 0.473639 0.449041 0.455683 0.447846 0.452254 0.461179 0.468 0.498223 0.51893 0.495882 0.488311 0.487216 0.443191 0.451775 0.427457 0.39901 0.45243 0.404623 0.447637 0.423432 0.417039 0.420185 0.423375 0.441352 0.433683 0.439639 0.404802 0.451763 0.455034 
0.570992 0.573994 0.549029 0.629732 0.517022 0.362846 0.33627 0.329881 0.322918 0.310959 0.290645 0.286857 0.287026 0.250052 0.242862 0.2307 0.205219 0.208528 0.193896 0.179179 0.155373 0.167186 0.165147 0.137139 0.172701 0.190126 0.193156 0.224753 0.26717 0.295649 0.362208 0.417648 0.46756 0.531956 0.551544 0.570559 0.614261 0.614122 0.606372 0.616593 0.592899 0.575292 0.56362 0.542352 0.543436 0.52201 0.513757 0.526582 0.513715 0.500764 0.49656 0.50666 0.484351 0.463561 0.492491 0.469191 0.454825 0.461006 0.425868 0.443332 0.459552 0.413112 0.428048 0.429966 0.419508 0.42262 0.423822 0.468791 0.469811 0.479743 0.460838 0.427209 0.397459 0.387599 0.37194 0.370235 0.360154 0.362373 0.39409 0.366969 0.374262 0.398248 0.367408 0.382917 0.400933 0.376683 0.398641 0.373538 0.459182 0.457064 0.602505 0.841331 0.733402 0.677636 0.558118 0.398196 
0.551632 0.740342 0.939445 0.788316 0.748621 0.611371 0.345906 0.454258 0.572318 0.519437 0.506379 0.534043 0.49153 0.386398 0.325939 0.359012 0.3197 0.319808 0.301951 0.274151 0.307991 0.258821 0.23912 0.246255 0.207886 0.232739 0.208305 0.17143 0.189847 0.168177 0.200695 0.127951 0.152036 0.1974 0.195124 0.214448 0.256726 0.30554 0.3402 0.397411 0.403429 0.500888 0.483171 0.4704 0.540686 0.538325 0.546694 0.540281 0.546634 0.516261 0.516695 0.530558 0.478984 0.507755 0.4913 0.485972 0.486859 0.497913 0.49365 0.491448 0.463324 0.493741 0.494097 0.441967 0.487635 0.46908 0.463107 0.48614 0.430991 0.456239 0.463141 0.465364 0.462409 0.521513 0.516625 0.493407 0.478607 0.466099 0.458872 0.396952 0.390619 0.41612 0.41641 0.341802 0.395528 0.408211 0.38903 0.388714 0.357454 0.377074 0.39739 0.388773 0.372588 0.376101 0.399016 0.405285 
0.667416 0.802977 0.856802 0.696528 0.392812 0.340899 0.3068 0.227796 0.242233 0.216836 0.193463 0.17742 0.130367 0.108195 0.0828528 0.0669078 0.111881 0.0968152 0.208347 0.335682 0.34645 0.460981 0.498545 0.536234 0.547852 0.547261 0.562251 0.526322 0.536284 0.530618 0.51828 0.518828 0.502125 0.493358 0.477494 0.483612 0.473881 0.457426 0.475298 0.454713 0.460802 0.440403 0.437236 0.435083 0.418602 0.437523 0.41642 0.417343 0.420325 0.421076 0.42879 0.40766 0.407622 0.421992 0.408958 0.421337 0.407625 0.429321 0.407159 0.423053 0.424881 0.433148 0.435332 0.428074 0.421324 0.432878 0.416329 0.421745 0.418482 0.40808 0.408906 0.409649 0.41851 0.402649 0.412174 0.42528 0.397241 0.416641 0.458201 0.417093 0.443928 0.418636 0.357712 0.375644 0.416212 0.385803 0.369663 0.381828 0.393452 0.372043 0.413795 0.406641 0.609947 0.823557 0.703718 0.447631 
0.510398 0.530005 0.544347 0.593387 0.669748 0.730721 0.749124 0.715642 0.643708 0.56933 0.4937 0.433331 0.442277 0.45335 0.404848 0.39783 0.421596 0.400247 0.412372 0.425986 0.358888 0.326048 0.3469 0.330596 0.322051 0.328281 0.300725 0.286887 0.29138 0.261599 0.230379 0.241312 0.254241 0.234833 0.215719 0.212912 0.1974 0.172743 0.168149 0.178565 0.182837 0.180101 0.182446 0.19828 0.225883 0.255149 0.282437 0.313266 0.343039 0.366797 0.397374 0.437067 0.464795 0.473463 0.479604 0.490369 0.501074 0.511353 0.513285 0.505389 0.508798 0.520271 0.515004 0.506842 0.515522 0.521526 0.513419 0.506886 0.513292 0.520162 0.506727 0.493936 0.503095 0.503429 0.502647 0.517908 0.497258 0.4718 0.513077 0.542157 0.510398 0.496338 0.509638 0.519796 0.524585 0.507117 0.502878 0.536056 0.556291 0.550188 0.494849 0.401701 0.356993 0.272727 0.138381 0.228774 
0.543173 0.568939 0.583711 0.640329 0.721143 0.759316 0.741068 0.697295 0.63554 0.553967 0.471634 0.416695 0.410041 0.425875 0.408058 0.368661 0.361608 0.381429 0.395648 0.388992 0.359625 0.339877 0.347665 0.347274 0.329082 0.320837 0.311769 0.285904 0.275115 0.286533 0.271513 0.228983 0.212661 0.212144 0.187934 0.167437 0.167158 0.157943 0.148225 0.156365 0.16396 0.16868 0.185155 0.203613 0.211572 0.222937 0.257955 0.305975 0.336278 0.349984 0.374488 0.410041 0.431992 0.436746 0.442425 0.449317 0.450334 0.464013 0.48415 0.47661 0.469411 0.493904 0.510575 0.512588 0.510578 0.480215 0.469411 0.50388 0.49011 0.442425 0.457681 0.485961 0.478406 0.485897 0.497519 0.485602 0.478766 0.476156 0.469411 0.474234 0.487413 0.512588 0.543884 0.543286 0.525183 0.518073 0.499461 0.4892 0.507625 0.511632 0.521584 0.550577 0.526949 0.499994 0.54123 0.541189 
0.379801 0.326294 0.248572 0.21227 0.316388 0.345135 0.321617 0.289042 0.257215 0.291211 0.280337 0.292491 0.249606 0.23232 0.208598 0.20628 0.154354 0.113067 0.166446 0.102247 0.105653 0.111545 0.145879 0.198531 0.204256 0.298611 0.298833 0.357177 0.484524 0.408182 0.474117 0.506974 0.48561 0.523204 0.508084 0.50733 0.510824 0.497551 0.515817 0.517144 0.492794 0.521966 0.454554 0.547522 0.56806 0.479971 0.511724 0.492552 0.521635 0.507513 0.560459 0.468014 0.497103 0.541912 0.470588 0.490866 0.469336 0.487791 0.468353 0.4538 0.475967 0.519825 0.449566 0.456947 0.508119 0.478318 0.492403 0.492511 0.554897 0.544086 0.516554 0.513084 0.50806 0.485617 0.45078 0.454913 0.446849 0.468699 0.471342 0.432806 0.460185 0.487751 0.365155 0.464446 0.525557 0.385679 0.468705 0.474721 0.588905 0.768657 0.738848 0.696974 0.589534 0.44904 0.29672 0.264112 
0.4994 0.595175 0.719482 0.895324 0.768462 0.719161 0.643512 0.435529 0.446034 0.4739 0.449079 0.431772 0.408573 0.35619 0.299021 0.316289 0.316596 0.280379 0.265606 0.251086 0.241535 0.234582 0.225241 0.223817 0.228536 0.185476 0.174488 0.189679 0.16121 0.138451 0.147275 0.150333 0.159953 0.172156 0.187319 0.255679 0.318039 0.353715 0.390233 0.442733 0.491759 0.53456 0.515335 0.540245 0.55107 0.542622 0.554069 0.529406 0.535975 0.504958 0.496995 0.515152 0.51574 0.507773 0.477099 0.500613 0.49519 0.508911 0.46503 0.468025 0.475344 0.490568 0.465471 0.477402 0.474417 0.450533 0.450376 0.441474 0.460608 0.4713 0.463575 0.433077 0.4681 0.519603 0.50363 0.519901 0.476616 0.461416 0.487946 0.44622 0.432138 0.42508 0.424662 0.412027 0.42344 0.393572 0.423335 0.417157 0.37627 0.422877 0.394705 0.41553 0.403942 0.398755 0.420394 0.382988 
0.516033 0.518454 0.743218 0.867874 0.70094 0.588193 0.421137 0.438799 0.557947 0.537933 0.534807 0.521174 0.459452 0.311269 0.316723 0.332909 0.263931 0.274794 0.262255 0.208151 0.278564 0.234652 0.195529 0.20938 0.177211 0.224711 0.16093 0.15723 0.169392 0.121068 0.186817 0.135924 0.149174 0.188353 0.179808 0.26502 0.283784 0.311488 0.405771 0.450143 0.458283 0.490172 0.525037 0.558085 0.547518 0.536017 0.555118 0.530899 0.539783 0.561511 0.515304 0.478805 0.49437 0.535464 0.526918 0.494236 0.513048 0.531896 0.510177 0.528306 0.500949 0.489759 0.508736 0.460601 0.481482 0.478826 0.441153 0.456637 0.460921 0.462648 0.418133 0.488866 0.439089 0.472255 0.531524 0.522664 0.535375 0.460291 0.461178 0.473403 0.42272 0.41112 0.408182 0.408061 0.431309 0.418651 0.390366 0.407504 0.389193 0.41254 0.421946 0.4077 0.421004 0.40245 0.410926 0.405976 
0.491412 0.53263 0.56718 0.64449 0.756091 0.802125 0.742757 0.649949 0.568297 0.481177 0.406649 0.385087 0.400959 0.41077 0.40665 0.399522 0.393164 0.405066 0.432846 0.414314 0.342746 0.321685 0.36331 0.351583 0.288508 0.279583 0.310064 0.306075 0.284312 0.277265 0.271596 0.259924 0.24793 0.239148 0.236551 0.22647 0.203669 0.194692 0.198782 0.188422 0.179584 0.189581 0.19021 0.184499 0.201338 0.214113 0.208012 0.23239 0.288508 0.315317 0.308467 0.315657 0.345586 0.375062 0.400186 0.424021 0.435881 0.438032 0.447151 0.455351 0.449925 0.453592 0.474767 0.482096 0.476461 0.488463 0.509958 0.51901 0.515039 0.501287 0.497442 0.52006 0.531993 0.50357 0.480249 0.498143 0.52318 0.53091 0.545253 0.569149 0.568297 0.542753 0.52968 0.530752 0.518859 0.505247 0.51778 0.539571 0.540537 0.534793 0.542133 0.541116 0.52696 0.532996 0.539521 0.49212 
0.279848 0.300163 0.31395 0.269837 0.309898 0.338881 0.290067 0.287166 0.283637 0.255526 0.268469 0.256196 0.24275 0.248279 0.226959 0.221262 0.222616 0.201282 0.184611 0.185937 0.175926 0.146298 0.148141 0.184834 0.192751 0.164198 0.173483 0.239985 0.264992 0.257941 0.302312 0.338471 0.363567 0.412734 0.441794 0.457614 0.470073 0.479399 0.469446 0.46652 0.509892 0.515042 0.503735 0.520631 0.507848 0.507806 0.520684 0.507379 0.508055 0.523118 0.524554 0.511226 0.505103 0.520881 0.534275 0.529825 0.531185 0.53573 0.53073 0.539738 0.5538 0.550907 0.550449 0.559247 0.562475 0.568674 0.580361 0.56933 0.534058 0.51229 0.512274 0.501405 0.483667 0.483725 0.488267 0.488202 0.481378 0.473241 0.477099 0.475472 0.466777 0.470967 0.473706 0.468974 0.473371 0.474704 0.486292 0.525907 0.594253 0.698189 0.731098 0.64347 0.553065 0.472604 0.380751 0.360357 
0.517616 0.525352 0.531135 0.609374 0.700856 0.741542 0.754946 0.753801 0.708047 0.631924 0.559956 0.484002 0.436467 0.461228 0.475097 0.424144 0.404596 0.429765 0.421981 0.412324 0.419305 0.384137 0.343353 0.350145 0.353962 0.337905 0.336943 0.329906 0.297258 0.276581 0.280462 0.272504 0.2406 0.216417 0.212759 0.199983 0.166934 0.145614 0.146675 0.145237 0.144245 0.156476 0.160372 0.163081 0.196576 0.226246 0.223649 0.24571 0.307124 0.343765 0.346463 0.359864 0.391289 0.41881 0.429606 0.433403 0.447274 0.459002 0.453611 0.45535 0.47389 0.476994 0.463491 0.46704 0.480832 0.475229 0.46932 0.493107 0.515529 0.502893 0.485934 0.491846 0.499309 0.497157 0.492371 0.476863 0.45711 0.465051 0.499049 0.519637 0.521132 0.525289 0.515719 0.48397 0.473663 0.48649 0.480404 0.473693 0.491373 0.501983 0.49681 0.49352 0.491597 0.499213 0.503024 0.462737 
0.595384 0.541768 0.403981 0.351013 0.329031 0.232027 0.166013 0.145516 0.143519 0.135491 0.0825037 0.0738052 0.100054 0.047514 0.0546627 0.100794 0.152623 0.206573 0.312019 0.407086 0.455459 0.520131 0.542232 0.568046 0.559485 0.487432 0.535681 0.473456 0.467438 0.494521 0.484653 0.466997 0.467593 0.449855 0.452486 0.424611 0.440832 0.419443 0.413808 0.41196 0.412923 0.419377 0.408801 0.410729 0.41945 0.399298 0.43093 0.412259 0.423445 0.445171 0.415223 0.435439 0.440036 0.428934 0.442683 0.430111 0.436984 0.444726 0.435693 0.463797 0.430668 0.443427 0.452374 0.429117 0.444641 0.460417 0.428091 0.467191 0.464168 0.447918 0.468606 0.460637 0.47458 0.461608 0.475689 0.501363 0.474516 0.51548 0.529451 0.554733 0.525187 0.508288 0.460225 0.476003 0.45138 0.46698 0.451224 0.444858 0.459457 0.449814 0.4868 0.616314 0.88858 0.798662 0.458828 0.405247 
0.471723 0.626353 0.844738 0.884042 0.684729 0.449363 0.226037 0.330388 0.380032 0.286133 0.326221 0.280895 0.333855 0.334343 0.313961 0.299789 0.285101 0.312156 0.307379 0.284763 0.265257 0.278857 0.255931 0.214113 0.227936 0.213317 0.200528 0.186859 0.184722 0.177322 0.173134 0.178202 0.193547 0.207537 0.220871 0.27975 0.322943 0.372669 0.42236 0.44671 0.508868 0.523006 0.5396 0.559497 0.584954 0.596026 0.576451 0.565812 0.566873 0.557986 0.542126 0.53324 0.545265 0.540946 0.519552 0.531397 0.535959 0.543609 0.527104 0.531225 0.532444 0.529163 0.520698 0.50123 0.51729 0.504038 0.48329 0.480831 0.467723 0.474936 0.466536 0.458596 0.471888 0.499845 0.51537 0.513784 0.490282 0.45052 0.446728 0.462367 0.441956 0.403176 0.39819 0.404242 0.404211 0.412407 0.392307 0.399556 0.398013 0.393938 0.3932 0.380694 0.392661 0.391575 0.392826 0.405433 
0.352235 0.425845 0.677511 0.850519 0.619483 0.39489 0.174739 0.200598 0.412516 0.349044 0.314508 0.368007 0.367174 0.282987 0.266682 0.247553 0.276958 0.266905 0.177476 0.322456 0.274068 0.179193 0.263386 0.242973 0.245654 0.202804 0.208123 0.241465 0.212382 0.188408 0.210972 0.226302 0.16942 0.226219 0.309728 0.292586 0.320776 0.384139 0.388954 0.469168 0.566398 0.499919 0.559862 0.602323 0.575041 0.571341 0.575041 0.629019 0.618701 0.561818 0.567683 0.565365 0.559727 0.582106 0.575139 0.553324 0.560995 0.559043 0.568004 0.553151 0.499465 0.537877 0.569246 0.513479 0.4986 0.495799 0.523648 0.516096 0.441393 0.497175 0.508708 0.461326 0.516368 0.513302 0.530504 0.497107 0.489992 0.464825 0.41659 0.447217 0.422786 0.443501 0.405438 0.416536 0.411362 0.381848 0.356785 0.413231 0.430938 0.35038 0.412485 0.407669 0.372676 0.370564 0.373173 0.489148 
0.60573 0.698943 0.747434 0.748942 0.682691 0.579439 0.450058 0.444407 0.551412 0.570322 0.525615 0.523344 0.550804 0.519898 0.412585 0.33759 0.324508 0.314035 0.30223 0.293964 0.274864 0.263875 0.264825 0.255568 0.24793 0.242806 0.234261 0.232795 0.228299 0.22203 0.221318 0.210623 0.21012 0.241982 0.251155 0.224459 0.218539 0.229444 0.24194 0.249564 0.242219 0.242513 0.247511 0.260161 0.289401 0.315158 0.34873 0.386334 0.414792 0.43798 0.436544 0.428878 0.440052 0.453123 0.469326 0.487967 0.494834 0.498001 0.503905 0.504899 0.505289 0.502537 0.492099 0.486417 0.479985 0.474658 0.472186 0.457325 0.448405 0.44565 0.440492 0.44607 0.442243 0.431179 0.429763 0.427674 0.429997 0.430931 0.424527 0.421451 0.419778 0.424771 0.423618 0.416949 0.418026 0.418352 0.453712 0.492805 0.576381 0.727454 0.710015 0.651694 0.693079 0.6027 0.524392 0.510772 
0.493351 0.501353 0.511409 0.55776 0.642004 0.705868 0.707348 0.685386 0.688695 0.689155 0.637397 0.551373 0.485793 0.456631 0.446259 0.439998 0.430874 0.420692 0.422651 0.442173 0.458419 0.447062 0.407346 0.362187 0.336105 0.334181 0.337793 0.32969 0.317674 0.3126 0.304461 0.28484 0.272951 0.283576 0.294812 0.285601 0.266542 0.253655 0.244049 0.234065 0.225493 0.214211 0.200961 0.19666 0.200318 0.196185 0.183368 0.177476 0.182698 0.192988 0.207062 0.222714 0.234107 0.246059 0.267547 0.291473 0.309894 0.331442 0.361869 0.387903 0.402392 0.418182 0.441371 0.460542 0.469054 0.479792 0.50011 0.517605 0.521526 0.522344 0.531935 0.54005 0.536605 0.533575 0.542954 0.54894 0.534229 0.516519 0.52457 0.548113 0.54715 0.515053 0.490553 0.496638 0.51038 0.509549 0.503785 0.505092 0.507716 0.507082 0.506879 0.511036 0.522837 0.536667 0.531591 0.499433 
0.53463 0.528472 0.526466 0.613912 0.743078 0.792198 0.737493 0.662753 0.619232 0.564457 0.461972 0.36544 0.350097 0.404105 0.444018 0.422007 0.367272 0.330921 0.333866 0.359777 0.381304 0.386089 0.364436 0.306907 0.252426 0.268985 0.327435 0.327806 0.275241 0.256419 0.27228 0.270926 0.260329 0.264252 0.264545 0.249969 0.234065 0.21988 0.205317 0.197316 0.199369 0.206839 0.220592 0.240558 0.242876 0.212982 0.197344 0.230324 0.256238 0.24141 0.24726 0.294739 0.323455 0.330178 0.368378 0.419397 0.426755 0.415868 0.445191 0.489327 0.491568 0.483737 0.507203 0.513916 0.499132 0.534183 0.576633 0.540383 0.504152 0.54014 0.560461 0.54213 0.549324 0.533196 0.468618 0.467677 0.52907 0.531972 0.504407 0.532542 0.553542 0.504714 0.45659 0.464982 0.490524 0.498165 0.501705 0.51204 0.517998 0.518226 0.523929 0.532229 0.540819 0.557214 0.556839 0.508921 
0.470453 0.62881 0.788568 0.844487 0.707195 0.493101 0.24141 0.336291 0.403866 0.319343 0.395892 0.32161 0.360086 0.337379 0.251281 0.323243 0.279848 0.252607 0.281916 0.271443 0.249717 0.230142 0.226693 0.222142 0.217632 0.191564 0.191606 0.174097 0.142849 0.168624 0.182446 0.1783 0.188325 0.209883 0.249005 0.288612 0.359263 0.380545 0.40439 0.493551 0.503852 0.530336 0.572179 0.580765 0.595035 0.589394 0.576256 0.579481 0.587775 0.554537 0.537631 0.556867 0.533779 0.520973 0.520983 0.520567 0.521865 0.513937 0.517209 0.516843 0.513249 0.505517 0.486868 0.51322 0.496628 0.464059 0.500531 0.497603 0.467462 0.447501 0.46392 0.46119 0.452394 0.465377 0.529645 0.539192 0.504853 0.497987 0.473241 0.465775 0.440612 0.414567 0.415585 0.39486 0.394319 0.406938 0.413408 0.400586 0.401572 0.391724 0.385483 0.406046 0.401194 0.389534 0.396473 0.418418 
0.428846 0.587104 0.736041 0.632915 0.613172 0.405317 0.197163 0.384468 0.430128 0.371497 0.395712 0.39032 0.351028 0.268343 0.293461 0.267631 0.217408 0.269348 0.233339 0.241256 0.256377 0.183508 0.20628 0.219195 0.184317 0.14641 0.147345 0.180897 0.123832 0.123888 0.130283 0.153321 0.164309 0.174949 0.250723 0.273258 0.303911 0.370363 0.412561 0.48139 0.493137 0.48006 0.529702 0.535555 0.543852 0.538993 0.520741 0.51265 0.531508 0.499522 0.495427 0.525749 0.501134 0.496972 0.483121 0.513496 0.491131 0.500402 0.51673 0.4858 0.52776 0.483181 0.48743 0.492533 0.488139 0.513496 0.465912 0.499966 0.478548 0.504575 0.493827 0.485221 0.498457 0.540092 0.560249 0.571913 0.580849 0.542952 0.513393 0.509447 0.504954 0.473854 0.47484 0.498602 0.486017 0.454594 0.489387 0.474017 0.471877 0.482 0.460256 0.477744 0.523394 0.488851 0.480284 0.530125 
0.554839 0.734868 0.931794 0.815473 0.734854 0.541558 0.281216 0.450058 0.484223 0.495874 0.456454 0.419076 0.516872 0.330303 0.432196 0.325328 0.27108 0.366629 0.259477 0.292734 0.290042 0.254981 0.321702 0.194608 0.217757 0.318707 0.202692 0.200849 0.20931 0.206322 0.166739 0.194803 0.2338 0.248126 0.247776 0.317548 0.331158 0.401849 0.460383 0.398724 0.523369 0.502917 0.537051 0.544762 0.525849 0.596306 0.542913 0.552566 0.581059 0.54726 0.464635 0.533371 0.549504 0.478952 0.606205 0.486226 0.549395 0.484637 0.508986 0.554759 0.518194 0.471743 0.53639 0.478656 0.449948 0.526815 0.430126 0.483925 0.446962 0.482322 0.441812 0.434681 0.459432 0.452372 0.502629 0.410454 0.488734 0.511795 0.392389 0.429646 0.343077 0.388199 0.405331 0.300693 0.335741 0.348025 0.330129 0.290513 0.322749 0.328945 0.316293 0.35719 0.288883 0.307174 0.313616 0.296955 
0.514479 0.763058 0.934935 0.766381 0.688918 0.431659 0.284297 0.468174 0.443898 0.380904 0.401202 0.409658 0.364829 0.331797 0.342659 0.318777 0.306318 0.279429 0.277042 0.290527 0.252412 0.241731 0.258555 0.227028 0.205443 0.202217 0.181986 0.177713 0.167674 0.164323 0.142584 0.167479 0.144078 0.182823 0.232893 0.24511 0.313122 0.354382 0.406472 0.457913 0.479044 0.51296 0.561092 0.550274 0.562321 0.544984 0.547436 0.563564 0.521203 0.514783 0.521318 0.524705 0.51596 0.509931 0.513076 0.501234 0.526191 0.498632 0.549121 0.500905 0.462887 0.516505 0.509764 0.482049 0.478874 0.491241 0.443098 0.468127 0.493234 0.427204 0.44684 0.44176 0.449016 0.482973 0.497178 0.533137 0.525763 0.495934 0.475947 0.447258 0.443549 0.423945 0.404687 0.431703 0.420086 0.417686 0.395126 0.435025 0.397948 0.40551 0.39733 0.378508 0.458184 0.383149 0.374242 0.426964 
0.554349 0.644853 0.801874 1 0.831753 0.61387 0.426136 0.373438 0.485888 0.532201 0.524938 0.473664 0.512855 0.467112 0.391113 0.37186 0.325384 0.347804 0.308813 0.298775 0.296225 0.273258 0.281479 0.24409 0.234568 0.212298 0.194817 0.210092 0.19539 0.149844 0.165329 0.166194 0.185923 0.169308 0.188255 0.242764 0.27478 0.31282 0.357704 0.428412 0.431179 0.468657 0.501428 0.501134 0.541348 0.54341 0.529131 0.575907 0.544014 0.512952 0.532895 0.512427 0.511057 0.512635 0.500899 0.48218 0.495616 0.501487 0.470056 0.485602 0.46278 0.487385 0.470569 0.443542 0.455024 0.466887 0.464748 0.403323 0.461307 0.439875 0.434042 0.419019 0.419458 0.47502 0.487914 0.521562 0.460248 0.478889 0.493382 0.393086 0.418986 0.396194 0.392223 0.368265 0.372752 0.402319 0.365231 0.37833 0.357362 0.369763 0.401763 0.349554 0.362995 0.380428 0.355002 0.3726 
0.487486 0.648413 0.848578 0.810712 0.752531 0.559642 0.302714 0.365273 0.488227 0.455688 0.420238 0.434806 0.420659 0.356439 0.329977 0.342365 0.251909 0.302734 0.279988 0.24134 0.294073 0.245836 0.218763 0.191271 0.199816 0.220103 0.164491 0.131861 0.13718 0.187194 0.134053 0.152581 0.160414 0.218651 0.233926 0.244132 0.359386 0.38176 0.422655 0.482452 0.502561 0.495934 0.550118 0.577414 0.542878 0.577568 0.58441 0.501723 0.535977 0.572109 0.503061 0.507607 0.496391 0.483284 0.534222 0.502126 0.494077 0.496738 0.47475 0.533391 0.502099 0.469558 0.490299 0.486335 0.521237 0.47132 0.453106 0.472852 0.457433 0.502407 0.43579 0.449343 0.465714 0.522384 0.55434 0.516811 0.498688 0.440305 0.482405 0.462282 0.376701 0.445256 0.40366 0.35591 0.44663 0.390236 0.380852 0.38854 0.401184 0.409481 0.391437 0.390966 0.392106 0.398209 0.390783 0.442747 
0.725472 0.870652 0.727217 0.639896 0.453328 0.485642 0.591893 0.52701 0.516927 0.446206 0.356012 0.325018 0.312168 0.292104 0.289322 0.288968 0.274877 0.265313 0.261013 0.239762 0.22277 0.218763 0.198978 0.171961 0.164658 0.159618 0.132964 0.114394 0.118331 0.109661 0.116446 0.182921 0.211349 0.260119 0.331917 0.374935 0.441923 0.474094 0.508428 0.537745 0.525914 0.555968 0.550029 0.524658 0.524403 0.524466 0.516114 0.506114 0.505225 0.517435 0.513622 0.505567 0.52308 0.514647 0.498333 0.505565 0.500145 0.499233 0.486733 0.488762 0.477306 0.464851 0.467053 0.460412 0.461041 0.456263 0.456503 0.457222 0.447046 0.442236 0.452468 0.451192 0.439752 0.452742 0.450981 0.461268 0.51569 0.525618 0.494023 0.477391 0.470329 0.447853 0.419742 0.424674 0.417558 0.406699 0.428434 0.419132 0.421339 0.429338 0.430545 0.432535 0.422374 0.416472 0.429854 0.451292 
0.654124 0.85017 0.871895 0.842225 0.615294 0.489067 0.637969 0.648678 0.609835 0.664163 0.574901 0.428113 0.387984 0.367497 0.33937 0.331184 0.321802 0.308175 0.288787 0.28077 0.277698 0.264852 0.244328 0.240069 0.236998 0.212926 0.19902 0.185546 0.179473 0.169196 0.160065 0.178928 0.190908 0.205652 0.234456 0.279345 0.323016 0.351612 0.402372 0.447696 0.466895 0.490546 0.522588 0.532657 0.523341 0.524186 0.533769 0.520481 0.50802 0.500944 0.495123 0.495609 0.488281 0.487405 0.490316 0.488326 0.482285 0.48883 0.483922 0.46494 0.467497 0.457235 0.456814 0.45374 0.444734 0.450467 0.439898 0.429656 0.420424 0.431265 0.41845 0.412346 0.446912 0.470432 0.483214 0.47263 0.457803 0.44255 0.412727 0.399257 0.39414 0.391863 0.374781 0.35992 0.367645 0.373088 0.359343 0.365803 0.370118 0.367239 0.372762 0.369467 0.383315 0.375122 0.38895 0.4398 
0.431908 0.563159 0.731964 0.730498 0.620656 0.364769 0.274961 0.445135 0.456105 0.446449 0.478314 0.416325 0.340219 0.287927 0.286617 0.249969 0.268594 0.253026 0.245933 0.248768 0.237961 0.232083 0.216473 0.215481 0.199467 0.198992 0.177266 0.1573 0.175423 0.148406 0.138186 0.158473 0.149844 0.15737 0.185937 0.231357 0.26664 0.314325 0.36004 0.396708 0.455623 0.461085 0.503869 0.541544 0.529667 0.535823 0.577107 0.548278 0.534931 0.532768 0.527245 0.546238 0.53413 0.542179 0.538744 0.545739 0.538982 0.547212 0.545552 0.541076 0.538538 0.535361 0.527644 0.522822 0.521092 0.508958 0.510355 0.501787 0.489009 0.492737 0.494636 0.487631 0.500348 0.534676 0.560757 0.533468 0.511315 0.509651 0.500517 0.475097 0.446189 0.460146 0.44529 0.429532 0.450731 0.452831 0.429815 0.419852 0.431259 0.435934 0.434569 0.41894 0.434052 0.430918 0.447271 0.495493 
0.495332 0.566035 0.666048 0.807082 0.859022 0.805308 0.669678 0.51889 0.56954 0.604683 0.534719 0.52635 0.535769 0.420843 0.362921 0.324589 0.294841 0.271903 0.250346 0.252007 0.233242 0.221066 0.234624 0.223677 0.20508 0.181441 0.187738 0.190238 0.167884 0.164854 0.162215 0.173036 0.155639 0.17298 0.201421 0.235643 0.262297 0.283836 0.333644 0.358487 0.386571 0.415931 0.444849 0.455653 0.456538 0.4559 0.4612 0.475788 0.463575 0.469626 0.459027 0.449886 0.436083 0.44244 0.468089 0.439843 0.447394 0.47729 0.463255 0.492998 0.46954 0.459678 0.51106 0.45971 0.492862 0.489016 0.479708 0.488452 0.48083 0.475778 0.464945 0.478555 0.471116 0.494418 0.506262 0.49445 0.470088 0.50264 0.467776 0.47081 0.440851 0.448442 0.452064 0.429327 0.433648 0.435259 0.432055 0.431586 0.429089 0.428591 0.45465 0.430661 0.453366 0.432467 0.458244 0.441135 
0.485929 0.716103 0.784937 0.672163 0.543951 0.491058 0.56637 0.588529 0.578601 0.590078 0.483945 0.36772 0.341594 0.320113 0.297692 0.296845 0.283057 0.267561 0.25776 0.235294 0.235057 0.223887 0.212312 0.199467 0.159646 0.160274 0.154215 0.115134 0.100027 0.108404 0.110163 0.122855 0.158403 0.196004 0.247386 0.296798 0.3708 0.417573 0.445235 0.499144 0.507522 0.53144 0.5263 0.531556 0.552053 0.519528 0.523719 0.536322 0.521533 0.517746 0.523985 0.532812 0.51344 0.514113 0.519151 0.503239 0.507802 0.489146 0.492118 0.49647 0.477419 0.477427 0.471976 0.476226 0.469177 0.459808 0.459376 0.451886 0.466965 0.445758 0.44563 0.461828 0.44412 0.468895 0.494086 0.507974 0.529322 0.490594 0.466503 0.46584 0.432705 0.429335 0.43461 0.425271 0.431396 0.437242 0.418875 0.417196 0.425104 0.419421 0.438286 0.429796 0.419771 0.432035 0.451358 0.470756 
0.48587 0.541042 0.595091 0.698343 0.737214 0.649809 0.551206 0.456201 0.385013 0.420052 0.437588 0.406459 0.425747 0.423902 0.396624 0.365155 0.316111 0.314479 0.304701 0.286299 0.300725 0.298566 0.279946 0.26199 0.250373 0.241382 0.230365 0.215091 0.193784 0.182823 0.167004 0.146591 0.140671 0.136189 0.138116 0.150696 0.14789 0.157998 0.199271 0.237668 0.272392 0.298573 0.330363 0.378509 0.403845 0.421324 0.422174 0.432243 0.459647 0.463065 0.47182 0.45853 0.444825 0.481374 0.49335 0.477657 0.468372 0.471286 0.468942 0.454378 0.470245 0.493026 0.477043 0.474547 0.50624 0.509039 0.49385 0.512566 0.529829 0.543821 0.575655 0.586685 0.595007 0.602742 0.606666 0.609682 0.586364 0.571229 0.556605 0.534592 0.526806 0.514384 0.52524 0.544555 0.542286 0.507858 0.461295 0.458273 0.463068 0.472537 0.466381 0.425499 0.432218 0.449037 0.465077 0.4694 
0.475543 0.661608 0.831376 0.841331 0.720375 0.513795 0.26738 0.329501 0.459212 0.448085 0.451707 0.417647 0.464777 0.381796 0.283513 0.33419 0.284974 0.27774 0.302656 0.240321 0.264643 0.241689 0.220354 0.240949 0.201393 0.194831 0.17735 0.174376 0.144469 0.142919 0.17728 0.126248 0.169266 0.185365 0.207411 0.292633 0.291738 0.329454 0.394292 0.442989 0.481901 0.508372 0.527176 0.541366 0.56732 0.564011 0.588612 0.557709 0.558251 0.557653 0.520988 0.557508 0.517837 0.497857 0.518268 0.498091 0.502841 0.489777 0.483455 0.499643 0.497353 0.479179 0.478329 0.480785 0.488883 0.471035 0.462486 0.480929 0.447172 0.462413 0.450833 0.456715 0.510921 0.51347 0.507799 0.550219 0.513021 0.487064 0.493819 0.434477 0.434771 0.420958 0.396616 0.415765 0.41439 0.439682 0.39502 0.393399 0.419381 0.409189 0.400229 0.3971 0.418131 0.398911 0.407843 0.431925 
0.503229 0.697952 0.908881 0.760182 0.7292 0.586001 0.299467 0.343617 0.495589 0.468028 0.43503 0.461768 0.414853 0.423826 0.313127 0.295737 0.32972 0.256894 0.288609 0.28123 0.239022 0.259952 0.239706 0.223245 0.224962 0.193519 0.184736 0.210944 0.173497 0.16773 0.161978 0.184429 0.170229 0.180059 0.247553 0.246687 0.282773 0.333895 0.367843 0.437684 0.46507 0.47142 0.495314 0.540541 0.543535 0.547608 0.58635 0.562084 0.543031 0.548853 0.562363 0.543275 0.536359 0.554181 0.5129 0.531541 0.505071 0.517386 0.523601 0.515522 0.507382 0.480609 0.504471 0.517484 0.479412 0.490166 0.498069 0.468166 0.465975 0.451806 0.473841 0.454689 0.46476 0.514313 0.513548 0.520561 0.512392 0.473509 0.449223 0.440936 0.427286 0.39841 0.404564 0.408876 0.384657 0.393682 0.379699 0.367892 0.375319 0.358296 0.377095 0.366101 0.351932 0.352895 0.344068 0.40458 
0.500676 0.544398 0.799221 0.925455 0.755184 0.665573 0.475567 0.448926 0.599028 0.565574 0.539973 0.538568 0.474547 0.369118 0.346123 0.320843 0.302167 0.292224 0.296155 0.288178 0.262395 0.260119 0.256684 0.237305 0.232264 0.220326 0.188939 0.180827 0.173692 0.16921 0.151366 0.148071 0.157244 0.161601 0.17608 0.209478 0.259044 0.298781 0.338053 0.393086 0.442771 0.470442 0.494017 0.530632 0.544022 0.54339 0.551948 0.545647 0.538542 0.521255 0.505702 0.512889 0.511649 0.507956 0.495286 0.496868 0.508935 0.487332 0.493365 0.491357 0.478929 0.476582 0.475221 0.475555 0.466038 0.455484 0.453736 0.465606 0.449243 0.433523 0.451481 0.444243 0.427417 0.45714 0.492604 0.508604 0.504422 0.470975 0.468129 0.458505 0.420064 0.420872 0.412116 0.397878 0.394003 0.402383 0.398454 0.392142 0.380763 0.389065 0.399576 0.380594 0.386494 0.395822 0.394939 0.411335 
0.499076 0.528271 0.57391 0.68209 0.735399 0.671367 0.580319 0.501151 0.402957 0.380344 0.404446 0.376937 0.388332 0.403764 0.398177 0.394848 0.338676 0.312538 0.314977 0.282636 0.276344 0.279918 0.249047 0.233563 0.227336 0.211335 0.196395 0.170523 0.176373 0.158445 0.129892 0.150291 0.125634 0.123721 0.14338 0.137599 0.1752 0.195781 0.21738 0.253557 0.277377 0.320064 0.347485 0.386554 0.436184 0.446139 0.463678 0.495275 0.493329 0.482945 0.504448 0.514186 0.502922 0.518982 0.516943 0.500762 0.519575 0.51905 0.506354 0.512492 0.511906 0.50476 0.501921 0.50177 0.489475 0.491705 0.516772 0.512495 0.500328 0.518374 0.513926 0.493961 0.50995 0.519394 0.511134 0.508689 0.501088 0.504323 0.509264 0.497781 0.515611 0.522541 0.480742 0.486018 0.510884 0.52412 0.542081 0.519713 0.506825 0.499511 0.483177 0.480303 0.464847 0.486518 0.519141 0.478343 
0.432849 0.448867 0.482687 0.410548 0.365224 0.316874 0.289386 0.292783 0.298866 0.29046 0.271052 0.256657 0.199955 0.261083 0.234568 0.142388 0.224711 0.215663 0.0856313 0.170537 0.125284 0.07051 0.121584 0.0969408 0.146661 0.167004 0.200709 0.240181 0.285524 0.371163 0.424163 0.391812 0.427274 0.462691 0.460957 0.539775 0.467854 0.432142 0.491102 0.453868 0.487994 0.450797 0.4926 0.524325 0.461312 0.476647 0.492423 0.497679 0.497423 0.51092 0.515306 0.508908 0.507365 0.494401 0.506171 0.484227 0.523591 0.482903 0.485052 0.493016 0.484331 0.481571 0.465982 0.503541 0.48853 0.468575 0.509349 0.52472 0.528645 0.529859 0.510866 0.490238 0.501755 0.467156 0.468557 0.462679 0.480408 0.480874 0.453604 0.480303 0.458558 0.472007 0.479217 0.477582 0.472868 0.476761 0.48285 0.503255 0.512607 0.568869 0.724369 0.750688 0.713604 0.5984 0.467969 0.503819 
0.408598 0.442686 0.644783 0.837115 0.797099 0.705198 0.436766 0.215481 0.423328 0.492282 0.421344 0.487237 0.437673 0.380203 0.33096 0.304716 0.295464 0.30032 0.31087 0.299795 0.273788 0.275045 0.264126 0.224222 0.202706 0.195362 0.182097 0.146186 0.129669 0.1283 0.140154 0.127337 0.135044 0.172394 0.203041 0.233856 0.276525 0.33602 0.396254 0.432562 0.46211 0.514589 0.543322 0.556239 0.557152 0.572151 0.562782 0.559276 0.550952 0.54324 0.550848 0.511156 0.517203 0.530284 0.49779 0.505477 0.499866 0.502928 0.502258 0.479086 0.483568 0.487284 0.488436 0.486906 0.481698 0.495119 0.480126 0.456235 0.46626 0.470552 0.463523 0.458772 0.485522 0.52134 0.544784 0.532475 0.528158 0.520839 0.468909 0.446555 0.437849 0.410913 0.404306 0.416481 0.412307 0.414119 0.430668 0.430863 0.419384 0.404316 0.417053 0.412068 0.403863 0.423519 0.415569 0.420379 
0.541361 0.605325 0.683347 0.764329 0.798439 0.787492 0.775862 0.755044 0.691208 0.604111 0.529234 0.46996 0.434419 0.428025 0.41403 0.372509 0.349568 0.375546 0.408657 0.414207 0.40983 0.411126 0.405445 0.385824 0.360904 0.341327 0.337874 0.346368 0.346384 0.331949 0.320589 0.316894 0.302344 0.275059 0.257299 0.257187 0.257815 0.244956 0.225381 0.211907 0.207146 0.202734 0.193728 0.190433 0.202901 0.220634 0.227 0.22485 0.228034 0.238296 0.250988 0.268329 0.290957 0.310416 0.323421 0.342824 0.37374 0.396808 0.397188 0.395963 0.419849 0.453032 0.463025 0.45373 0.453935 0.467299 0.475183 0.473927 0.476571 0.49104 0.507709 0.509877 0.496949 0.489983 0.496543 0.494003 0.476391 0.47273 0.490557 0.502804 0.504307 0.508861 0.502037 0.472684 0.453945 0.466158 0.479163 0.475976 0.479255 0.493082 0.493433 0.483618 0.491634 0.513613 0.512087 0.475523 
0.513157 0.530786 0.588598 0.72892 0.737772 0.624077 0.529433 0.429757 0.372946 0.378409 0.396787 0.390141 0.364425 0.377769 0.374139 0.385825 0.326464 0.235908 0.294507 0.269851 0.213275 0.240544 0.249508 0.246408 0.181609 0.152539 0.173008 0.148169 0.138996 0.147708 0.149942 0.160875 0.134737 0.134695 0.192695 0.182726 0.192918 0.290542 0.2855 0.292403 0.390588 0.388566 0.402548 0.409918 0.420898 0.507695 0.476947 0.461852 0.520663 0.496962 0.479668 0.524658 0.515905 0.474538 0.50822 0.510163 0.490423 0.516589 0.489037 0.491567 0.534681 0.538292 0.538674 0.513351 0.505308 0.550181 0.571145 0.549367 0.538607 0.551883 0.55182 0.518239 0.512531 0.515526 0.50234 0.53262 0.522479 0.483591 0.507784 0.501639 0.473653 0.504971 0.504663 0.48212 0.471751 0.457438 0.487153 0.497872 0.501843 0.499383 0.457348 0.452929 0.451989 0.447161 0.473871 0.465957 
0.688639 0.75281 0.746094 0.750143 0.74009 0.784072 0.724536 0.539079 0.433549 0.403992 0.36501 0.33627 0.321526 0.301433 0.294426 0.287543 0.266612 0.259603 0.263163 0.25836 0.244342 0.234708 0.238547 0.2412 0.239734 0.234498 0.220089 0.203306 0.18711 0.187864 0.200653 0.194915 0.196283 0.210972 0.224445 0.254688 0.27605 0.29643 0.338824 0.363807 0.38907 0.436359 0.470849 0.491817 0.50239 0.495105 0.492248 0.506773 0.517802 0.516794 0.514824 0.50772 0.492597 0.486068 0.489996 0.490626 0.482561 0.471338 0.477699 0.489791 0.481447 0.480633 0.486835 0.481265 0.491903 0.508292 0.50893 0.516534 0.5364 0.546653 0.529227 0.501138 0.496667 0.51221 0.521866 0.511296 0.491447 0.474132 0.445505 0.421117 0.417446 0.410256 0.403417 0.398651 0.389207 0.393626 0.396454 0.38717 0.39048 0.396368 0.389923 0.389823 0.394173 0.40587 0.437193 0.434599 
0.519579 0.516652 0.511886 0.599992 0.697742 0.687326 0.641181 0.649516 0.630416 0.525463 0.425474 0.394109 0.399941 0.405114 0.387671 0.35091 0.33728 0.361767 0.370523 0.334428 0.307091 0.319529 0.332246 0.320858 0.294032 0.2745 0.278075 0.270493 0.244928 0.244803 0.241075 0.213652 0.22802 0.248921 0.202901 0.165203 0.176359 0.172575 0.167451 0.184206 0.183452 0.178188 0.195962 0.216975 0.233688 0.248921 0.270256 0.308365 0.331297 0.332376 0.365835 0.415632 0.421039 0.411386 0.429361 0.452123 0.463419 0.466624 0.462955 0.465761 0.476431 0.484331 0.492393 0.494083 0.483612 0.48205 0.496044 0.503788 0.497759 0.490161 0.489095 0.498034 0.515657 0.521894 0.513259 0.523501 0.541845 0.522781 0.503889 0.538029 0.572723 0.560771 0.555301 0.570824 0.541153 0.507907 0.554497 0.57842 0.528095 0.547157 0.603915 0.577791 0.573142 0.603915 0.533578 0.44071 
0.536823 0.640664 0.704444 0.687452 0.596669 0.491084 0.400797 0.444984 0.504387 0.480387 0.51294 0.518095 0.488164 0.444382 0.339407 0.313989 0.287016 0.285863 0.315296 0.290816 0.250876 0.241689 0.241396 0.220229 0.201114 0.191913 0.189944 0.164212 0.122255 0.113053 0.106952 0.099119 0.109312 0.126443 0.148197 0.159199 0.201561 0.248698 0.276357 0.343441 0.374742 0.393411 0.454686 0.472628 0.478678 0.502438 0.510019 0.512149 0.50257 0.503534 0.514524 0.515031 0.512586 0.502816 0.496091 0.5058 0.519989 0.505463 0.509976 0.517056 0.49168 0.511213 0.504986 0.494883 0.495733 0.486866 0.499439 0.490648 0.509034 0.497793 0.501381 0.506906 0.496536 0.529472 0.541527 0.538769 0.535753 0.513432 0.508855 0.47543 0.459055 0.460306 0.447599 0.487269 0.46472 0.443695 0.446383 0.441562 0.470849 0.470188 0.449967 0.452668 0.468097 0.460096 0.49351 0.515909 
0.45317 0.633529 0.833736 0.643512 0.650857 0.474791 0.208026 0.387202 0.505429 0.440378 0.450301 0.483438 0.340424 0.298322 0.318954 0.224208 0.245864 0.275101 0.222337 0.236984 0.2369 0.20621 0.238603 0.223999 0.159032 0.183871 0.178537 0.139917 0.160567 0.147848 0.170551 0.148434 0.178635 0.209059 0.261571 0.27693 0.270828 0.369791 0.388354 0.425053 0.474883 0.482273 0.516251 0.540526 0.552143 0.534803 0.562991 0.579118 0.53027 0.536858 0.53596 0.521311 0.529018 0.498256 0.510014 0.528268 0.499839 0.526785 0.51122 0.507186 0.538785 0.504095 0.52302 0.505747 0.515907 0.525622 0.444733 0.498755 0.49926 0.4804 0.499448 0.469276 0.544809 0.531351 0.557485 0.580989 0.50017 0.498803 0.491045 0.473175 0.455151 0.445381 0.428599 0.425364 0.433137 0.420812 0.44227 0.413324 0.415083 0.436123 0.399719 0.427256 0.409454 0.388083 0.454837 0.449331 
0.677427 0.807165 0.701345 0.62504 0.476503 0.545284 0.60425 0.545875 0.579565 0.498609 0.399388 0.377941 0.35748 0.321716 0.330854 0.31073 0.29889 0.272909 0.25378 0.243783 0.205708 0.18725 0.16847 0.123078 0.0937574 0.0860083 0.0633753 0.0509208 0.0783709 0.112704 0.156086 0.210371 0.29135 0.333249 0.387368 0.446102 0.458638 0.482594 0.498784 0.506687 0.508679 0.504124 0.493819 0.491747 0.481434 0.494714 0.508376 0.482706 0.48858 0.510736 0.507059 0.500348 0.499411 0.499726 0.499996 0.499108 0.490109 0.501044 0.472487 0.485581 0.478573 0.464642 0.480765 0.477945 0.465989 0.462962 0.473057 0.459113 0.466919 0.461486 0.462607 0.461672 0.438278 0.450795 0.451597 0.470295 0.522383 0.504486 0.487966 0.486152 0.458576 0.440234 0.428612 0.442729 0.422585 0.421836 0.441023 0.410962 0.415309 0.427493 0.427029 0.420571 0.42797 0.444391 0.426826 0.433016 
0.572151 0.636894 0.569121 0.340751 0.305655 0.251421 0.198336 0.182125 0.181776 0.148281 0.0834671 0.0954469 0.0480585 0.0244342 0.0357018 0.0277851 0.147652 0.207579 0.304328 0.432298 0.508391 0.529523 0.56408 0.559841 0.54268 0.53078 0.513883 0.504501 0.481672 0.480675 0.480731 0.480092 0.46835 0.465102 0.4387 0.458582 0.419987 0.449385 0.417866 0.451936 0.440423 0.399742 0.445925 0.418954 0.413588 0.419105 0.428699 0.419658 0.450206 0.429864 0.435733 0.430144 0.436023 0.42871 0.427134 0.434843 0.423137 0.430791 0.431806 0.439139 0.455951 0.444995 0.459185 0.459224 0.440029 0.441126 0.42547 0.437791 0.452652 0.449398 0.476411 0.455566 0.455949 0.457547 0.432581 0.447662 0.480948 0.506479 0.516076 0.45558 0.467853 0.425841 0.424525 0.437842 0.458997 0.439738 0.440702 0.450334 0.449122 0.448487 0.483135 0.601877 0.806621 0.804541 0.550305 0.441855 
0.565826 0.605423 0.625319 0.708465 0.807626 0.850337 0.796373 0.709219 0.63614 0.561372 0.462209 0.399976 0.415101 0.436868 0.409656 0.391775 0.427581 0.447803 0.401547 0.355319 0.354562 0.350515 0.330874 0.332148 0.33947 0.33202 0.327535 0.318553 0.293728 0.282569 0.287037 0.269251 0.240027 0.244509 0.2622 0.239874 0.204549 0.210287 0.224054 0.203432 0.185169 0.195222 0.205135 0.206783 0.215021 0.225562 0.231552 0.24039 0.259826 0.286958 0.309542 0.321596 0.335886 0.367878 0.403947 0.412142 0.406628 0.4325 0.466524 0.460958 0.449025 0.461243 0.464485 0.461247 0.470356 0.46682 0.466927 0.497705 0.504795 0.477701 0.486796 0.515058 0.498574 0.469468 0.473349 0.494619 0.515093 0.522625 0.515699 0.519324 0.52535 0.501951 0.47391 0.472455 0.4754 0.474886 0.489954 0.504869 0.49857 0.487022 0.487649 0.483494 0.482557 0.494157 0.509244 0.483311 
0.464066 0.607378 0.835774 0.994834 0.782522 0.504095 0.294037 0.287924 0.474558 0.490224 0.447252 0.41837 0.415901 0.414782 0.354494 0.337881 0.325674 0.309123 0.32177 0.262479 0.269977 0.29402 0.284729 0.226191 0.214057 0.30192 0.209212 0.147931 0.19754 0.210162 0.169224 0.204102 0.22943 0.192192 0.246562 0.314855 0.316406 0.365766 0.411539 0.430606 0.499458 0.495642 0.487371 0.592466 0.573016 0.54979 0.576912 0.545957 0.561386 0.553909 0.53795 0.558153 0.510685 0.524402 0.574762 0.487377 0.466165 0.562126 0.539864 0.48499 0.494775 0.514487 0.49259 0.511812 0.492613 0.434357 0.49101 0.488552 0.452891 0.43838 0.411539 0.442046 0.449233 0.462593 0.522768 0.478543 0.467091 0.516733 0.427798 0.445513 0.40814 0.329981 0.434615 0.323069 0.395028 0.394471 0.317299 0.334759 0.348748 0.374965 0.362094 0.339036 0.28773 0.362535 0.388953 0.307368 
0.588305 0.663534 0.700744 0.744167 0.724047 0.644127 0.568967 0.511653 0.417765 0.368907 0.431426 0.465685 0.396053 0.37082 0.426868 0.434988 0.384756 0.344722 0.316714 0.30347 0.309186 0.298003 0.275199 0.288919 0.318717 0.297226 0.242233 0.230589 0.251323 0.238115 0.212452 0.232948 0.267449 0.249731 0.199816 0.186998 0.214686 0.227573 0.212131 0.208207 0.228201 0.239134 0.226372 0.216389 0.231552 0.261683 0.287424 0.308361 0.33479 0.358808 0.369392 0.38641 0.41828 0.436474 0.445237 0.471627 0.493985 0.496392 0.50777 0.524866 0.522654 0.518148 0.52751 0.537849 0.543857 0.543174 0.530821 0.519902 0.5209 0.518303 0.503116 0.49502 0.502365 0.503754 0.498333 0.508033 0.522178 0.522135 0.522397 0.528687 0.532722 0.53913 0.541443 0.536917 0.543822 0.551222 0.536284 0.534946 0.583823 0.622541 0.579844 0.510796 0.459016 0.365396 0.261865 0.304737 
0.538715 0.779003 0.887673 0.782773 0.698734 0.482574 0.470659 0.600089 0.535501 0.499877 0.465491 0.423066 0.401325 0.39851 0.390958 0.372973 0.331336 0.31271 0.315569 0.281077 0.246576 0.2523 0.226191 0.201561 0.204437 0.183173 0.174921 0.154731 0.138144 0.14317 0.117214 0.117242 0.154284 0.175563 0.215495 0.262116 0.319124 0.395596 0.440869 0.481036 0.518245 0.528059 0.543398 0.551105 0.540266 0.530752 0.535166 0.534972 0.517802 0.502224 0.504733 0.507001 0.504904 0.507315 0.50044 0.483302 0.466571 0.483862 0.484995 0.465579 0.469541 0.477889 0.464799 0.456319 0.477769 0.470037 0.449606 0.462588 0.455499 0.455394 0.453095 0.438267 0.478559 0.489671 0.488893 0.511571 0.474101 0.45581 0.443483 0.409992 0.407034 0.397552 0.389257 0.370756 0.389274 0.399388 0.386832 0.387001 0.371122 0.386595 0.395082 0.382173 0.406222 0.397192 0.417578 0.457021 
0.61616 0.822287 0.903073 0.825512 0.596822 0.445097 0.600913 0.626157 0.564485 0.607043 0.543452 0.440121 0.345792 0.345675 0.315832 0.302041 0.298856 0.283308 0.291771 0.261404 0.253501 0.235559 0.235839 0.237738 0.195362 0.21294 0.20878 0.19141 0.174446 0.17224 0.173846 0.183033 0.200179 0.209436 0.245501 0.302982 0.339255 0.385296 0.434033 0.466182 0.49784 0.524955 0.553637 0.550847 0.554188 0.552064 0.544368 0.528687 0.522248 0.516755 0.492458 0.492026 0.499419 0.492082 0.493143 0.510052 0.504164 0.493124 0.480159 0.473957 0.48601 0.490077 0.46965 0.461212 0.475562 0.458184 0.43906 0.439811 0.441407 0.451604 0.429086 0.428767 0.432971 0.432214 0.472299 0.479852 0.466714 0.434468 0.433964 0.444803 0.410336 0.390165 0.367237 0.404906 0.376606 0.349462 0.364175 0.347489 0.359543 0.365257 0.36969 0.365158 0.364892 0.369084 0.357901 0.406904 
0.576395 0.599056 0.584507 0.637955 0.739322 0.789028 0.771994 0.750855 0.740746 0.699823 0.622806 0.546499 0.488703 0.457635 0.461954 0.468893 0.439003 0.401752 0.402353 0.420867 0.422276 0.407483 0.384964 0.360527 0.349231 0.351553 0.347383 0.33295 0.320494 0.30933 0.291342 0.276497 0.279848 0.287284 0.272546 0.246366 0.236648 0.233661 0.215607 0.197596 0.196158 0.196451 0.190531 0.187976 0.188436 0.19465 0.213638 0.224794 0.213234 0.214518 0.256098 0.302839 0.318846 0.322687 0.342031 0.371307 0.394849 0.413381 0.431157 0.44197 0.447305 0.456059 0.460742 0.455541 0.46137 0.482428 0.486663 0.47481 0.479859 0.490112 0.481827 0.478781 0.486234 0.468573 0.440935 0.449541 0.474172 0.476371 0.474826 0.489139 0.503803 0.510444 0.506125 0.481517 0.455908 0.463074 0.488524 0.48709 0.466119 0.474958 0.501305 0.480404 0.431721 0.441637 0.487865 0.470979 
0.744572 0.719663 0.671409 0.748244 0.661663 0.481144 0.355981 0.345163 0.304922 0.277014 0.280085 0.267003 0.250834 0.225227 0.223468 0.197889 0.198168 0.188827 0.176233 0.173343 0.156588 0.142151 0.13954 0.148015 0.142807 0.173148 0.185574 0.198782 0.247023 0.304046 0.350964 0.396266 0.462188 0.481961 0.516275 0.552718 0.5626 0.585471 0.56482 0.57923 0.574957 0.562461 0.536893 0.540819 0.521187 0.538525 0.522646 0.517794 0.514961 0.513171 0.516955 0.495017 0.502596 0.495688 0.503865 0.462276 0.467709 0.485309 0.468202 0.459113 0.46817 0.477035 0.456046 0.468287 0.444125 0.438194 0.460706 0.429468 0.453916 0.487667 0.492557 0.520208 0.511099 0.492996 0.481471 0.440488 0.42697 0.438384 0.414918 0.384428 0.415452 0.421679 0.411777 0.406479 0.391772 0.405933 0.407033 0.387393 0.411702 0.408289 0.388098 0.416327 0.406561 0.411885 0.46069 0.486646 
0.755337 0.879379 0.828402 0.739113 0.61542 0.503559 0.42704 0.436294 0.448571 0.419281 0.424167 0.453113 0.457972 0.419115 0.344787 0.325969 0.324786 0.297194 0.314064 0.317291 0.29604 0.303477 0.289002 0.277391 0.298544 0.289178 0.261083 0.251616 0.230226 0.215118 0.220173 0.19539 0.175451 0.169043 0.157538 0.181329 0.188799 0.175717 0.205135 0.232474 0.257159 0.301769 0.323767 0.334986 0.364643 0.388621 0.418965 0.450521 0.442205 0.468875 0.501398 0.48255 0.500288 0.488769 0.484069 0.539479 0.486785 0.462501 0.512108 0.444776 0.411438 0.472244 0.478861 0.459928 0.465468 0.475312 0.472364 0.483256 0.508065 0.509133 0.528258 0.568646 0.571145 0.577456 0.608592 0.595426 0.567026 0.573533 0.54879 0.495628 0.495411 0.489891 0.424196 0.410531 0.461564 0.455756 0.414047 0.407061 0.424804 0.440632 0.432855 0.421637 0.441823 0.435349 0.431041 0.451046 
0.451046 0.451046 0.451046 0.451046 0.451046 0.451046 0.451046 0.451046 0.451046 0.451046 0.451046 0.451046 0.451046 0.451046 0.451046 0.451046 0.451046 0.451046 0.451046 0.451046 0.451046 0.451046 0.451046 0.451046 0.451046 0.451046 0.451046 0.451046 0.451046 0.451046 0.451046 0.451046 0.451046 0.451046 0.451046 0.451046 0.451046 0.451046 0.451046 0.451046 0.451046 0.451046 0.451046 0.451046 0.451046 0.451046 0.451046 0.451046 0.451046 0.451046 0.451046 0.451046 0.451046 0.451046 0.451046 0.451046 0.451046 0.451046 0.451046 0.451046 0.451046 0.451046 0.451046 0.451046 0.451046 0.451046 0.451046 0.451046 0.451046 0.451046 0.451046 0.451046 0.451046 0.451046 0.451046 0.451046 0.451046 0.451046 0.451046 0.451046 0.451046 0.451046 0.451046 0.451046 0.451046 0.451046 0.451046 0.451046 0.451046 0.451046 0.451046 0.451046 0.451046 0.451046 0.451046 0.451046 
0.451046 0.451046 0.451046 0.451046 0.451046 0.451046 0.451046 0.451046 0.451046 0.451046 0.451046 0.451046 0.451046 0.451046 0.451046 0.451046 0.451046 0.451046 0.451046 0.451046 0.451046 0.451046 0.451046 0.451046 0.451046 0.451046 0.451046 0.451046 0.451046 0.451046 0.451046 0.451046 0.451046 0.451046 0.451046 0.451046 0.451046 0.451046 0.451046 0.451046 0.451046 0.451046 0.451046 0.451046 0.451046 0.451046 0.451046 0.451046 0.451046 0.451046 0.451046 0.451046 0.451046 0.451046 0.451046 0.451046 0.451046 0.451046 0.451046 0.451046 0.451046 0.451046 0.451046 0.451046 0.451046 0.451046 0.451046 0.451046 0.451046 0.451046 0.451046 0.451046 0.451046 0.451046 0.451046 0.451046 0.451046 0.451046 0.451046 0.451046 0.451046 0.451046 0.451046 0.451046 0.451046 0.451046 0.451046 0.451046 0.451046 0.451046 0.451046 0.451046 0.451046 0.451046 0.451046 0.451046 
0.451046 0.451046 0.451046 0.451046 0.451046 0.451046 0.451046 0.451046 0.451046 0.451046 0.451046 0.451046 0.451046 0.451046 0.451046 0.451046 0.451046 0.451046 0.451046 0.451046 0.451046 0.451046 0.451046 0.451046 0.451046 0.451046 0.451046 0.451046 0.451046 0.451046 0.451046 0.451046 0.451046 0.451046 0.451046 0.451046 0.451046 0.451046 0.451046 0.451046 0.451046 0.451046 0.451046 0.451046 0.451046 0.451046 0.451046 0.451046 0.451046 0.451046 0.451046 0.451046 0.451046 0.451046 0.451046 0.451046 0.451046 0.451046 0.451046 0.451046 0.451046 0.451046 0.451046 0.451046 0.451046 0.451046 0.451046 0.451046 0.451046 0.451046 0.451046 0.451046 0.451046 0.451046 0.451046 0.451046 0.451046 0.451046 0.451046 0.451046 0.451046 0.451046 0.451046 0.451046 0.451046 0.451046 0.451046 0.451046 0.451046 0.451046 0.451046 0.451046 0.451046 0.451046 0.451046 0.451046 
0.451046 0.451046 0.451046 0.451046 0.451046 0.451046 0.451046 0.451046 0.451046 0.451046 0.451046 0.451046 0.451046 0.451046 0.451046 0.451046 0.451046 0.451046 0.451046 0.451046 0.451046 0.451046 0.451046 0.451046 0.451046 0.451046 0.451046 0.451046 0.451046 0.451046 0.451046 0.451046 0.451046 0.451046 0.451046 0.451046 0.451046 0.451046 0.451046 0.451046 0.451046 0.451046 0.451046 0.451046 0.451046 0.451046 0.451046 0.451046 0.451046 0.451046 0.451046 0.451046 0.451046 0.451046 0.451046 0.451046 0.451046 0.451046 0.451046 0.451046 0.451046 0.451046 0.451046 0.451046 0.451046 0.451046 0.451046 0.451046 0.451046 0.451046 0.451046 0.451046 0.451046 0.451046 0.451046 0.451046 0.451046 0.451046 0.451046 0.451046 0.451046 0.451046 0.451046 0.451046 0.451046 0.451046 0.451046 0.451046 0.451046 0.451046 0.451046 0.451046 0.451046 0.451046 0.451046 0.451046 
0.451046 0.451046 0.451046 0.451046 0.451046 0.451046 0.451046 0.451046 0.451046 0.451046 0.451046 0.451046 0.451046 0.451046 0.451046 0.451046 0.451046 0.451046 0.451046 0.451046 0.451046 0.451046 0.451046 0.451046 0.451046 0.451046 0.451046 0.451046 0.451046 0.451046 0.451046 0.451046 0.451046 0.451046 0.451046 0.451046 0.451046 0.451046 0.451046 0.451046 0.451046 0.451046 0.451046 0.451046 0.451046 0.451046 0.451046 0.451046 0.451046 0.451046 0.451046 0.451046 0.451046 0.451046 0.451046 0.451046 0.451046 0.451046 0.451046 0.451046 0.451046 0.451046 0.451046 0.451046 0.451046 0.451046 0.451046 0.451046 0.451046 0.451046 0.451046 0.451046 0.451046 0.451046 0.451046 0.451046 0.451046 0.451046 0.451046 0.451046 0.451046 0.451046 0.451046 0.451046 0.451046 0.451046 0.451046 0.451046 0.451046 0.451046 0.451046 0.451046 0.451046 0.451046 0.451046 0.451046 
0.451046 0.451046 0.451046 0.451046 0.451046 0.451046 0.451046 0.451046 0.451046 0.451046 0.451046 0.451046 0.451046 0.451046 0.451046 0.451046 0.451046 0.451046 0.451046 0.451046 0.451046 0.451046 0.451046 0.451046 0.451046 0.451046 0.451046 0.451046 0.451046 0.451046 0.451046 0.451046 0.451046 0.451046 0.451046 0.451046 0.451046 0.451046 0.451046 0.451046 0.451046 0.451046 0.451046 0.451046 0.451046 0.451046 0.451046 0.451046 0.451046 0.451046 0.451046 0.451046 0.451046 0.451046 0.451046 0.451046 0.451046 0.451046 0.451046 0.451046 0.451046 0.451046 0.451046 0.451046 0.451046 0.451046 0.451046 0.451046 0.451046 0.451046 0.451046 0.451046 0.451046 0.451046 0.451046 0.451046 0.451046 0.451046 0.451046 0.451046 0.451046 0.451046 0.451046 0.451046 0.451046 0.451046 0.451046 0.451046 0.451046 0.451046 0.451046 0.451046 0.451046 0.451046 0.451046 0.451046 
0.451046 0.451046 0.451046 0.451046 0.451046 0.451046 0.451046 0.451046 0.451046 0.451046 0.451046 0.451046 0.451046 0.451046 0.451046 0.451046 0.451046 0.451046 0.451046 0.451046 0.451046 0.451046 0.451046 0.451046 0.451046 0.451046 0.451046 0.451046 0.451046 0.451046 0.451046 0.451046 0.451046 0.451046 0.451046 0.451046 0.451046 0.451046 0.451046 0.451046 0.451046 0.451046 0.451046 0.451046 0.451046 0.451046 0.451046 0.451046 0.451046 0.451046 0.451046 0.451046 0.451046 0.451046 0.451046 0.451046 0.451046 0.451046 0.451046 0.451046 0.451046 0.451046 0.451046 0.451046 0.451046 0.451046 0.451046 0.451046 0.451046 0.451046 0.451046 0.451046 0.451046 0.451046 0.451046 0.451046 0.451046 0.451046 0.451046 0.451046 0.451046 0.451046 0.451046 0.451046 0.451046 0.451046 0.451046 0.451046 0.451046 0.451046 0.451046 0.451046 0.451046 0.451046 0.451046 0.451046 
0.451046 0.451046 0.451046 0.451046 0.451046 0.451046 0.451046 0.451046 0.451046 0.451046 0.451046 0.451046 0.451046 0.451046 0.451046 0.451046 0.451046 0.451046 0.451046 0.451046 0.451046 0.451046 0.451046 0.451046 0.451046 0.451046 0.451046 0.451046 0.451046 0.451046 0.451046 0.451046 0.451046 0.451046 0.451046 0.451046 0.451046 0.451046 0.451046 0.451046 0.451046 0.451046 0.451046 0.451046 0.451046 0.451046 0.451046 0.451046 0.451046 0.451046 0.451046 0.451046 0.451046 0.451046 0.451046 0.451046 0.451046 0.451046 0.451046 0.451046 0.451046 0.451046 0.451046 0.451046 0.451046 0.451046 0.451046 0.451046 0.451046 0.451046 0.451046 0.451046 0.451046 0.451046 0.451046 0.451046 0.451046 0.451046 0.451046 0.451046 0.451046 0.451046 0.451046 0.451046 0.451046 0.451046 0.451046 0.451046 0.451046 0.451046 0.451046 0.451046 0.451046 0.451046 0.451046 0.451046 
0.451046 0.451046 0.451046 0.451046 0.451046 0.451046 0.451046 0.451046 0.451046 0.451046 0.451046 0.451046 0.451046 0.451046 0.451046 0.451046 0.451046 0.451046 0.451046 0.451046 0.451046 0.451046 0.451046 0.451046 0.451046 0.451046 0.451046 0.451046 0.451046 0.451046 0.451046 0.451046 0.451046 0.451046 0.451046 0.451046 0.451046 0.451046 0.451046 0.451046 0.451046 0.451046 0.451046 0.451046 0.451046 0.451046 0.451046 0.451046 0.451046 0.451046 0.451046 0.451046 0.451046 0.451046 0.451046 0.451046 0.451046 0.451046 0.451046 0.451046 0.451046 0.451046 0.451046 0.451046 0.451046 0.451046 0.451046 0.451046 0.451046 0.451046 0.451046 0.451046 0.451046 0.451046 0.451046 0.451046 0.451046 0.451046 0.451046 0.451046 0.451046 0.451046 0.451046 0.451046 0.451046 0.451046 0.451046 0.451046 0.451046 0.451046 0.451046 0.451046 0.451046 0.451046 0.451046 0.451046 
0.451046 0.451046 0.451046 0.451046 0.451046 0.451046 0.451046 0.451046 0.451046 0.451046 0.451046 0.451046 0.451046 0.451046 0.451046 0.451046 0.451046 0.451046 0.451046 0.451046 0.451046 0.451046 0.451046 0.451046 0.451046 0.451046 0.451046 0.451046 0.451046 0.451046 0.451046 0.451046 0.451046 0.451046 0.451046 0.451046 0.451046 0.451046 0.451046 0.451046 0.451046 0.451046 0.451046 0.451046 0.451046 0.451046 0.451046 0.451046 0.451046 0.451046 0.451046 0.451046 0.451046 0.451046 0.451046 0.451046 0.451046 0.451046 0.451046 0.451046 0.451046 0.451046 0.451046 0.451046 0.451046 0.451046 0.451046 0.451046 0.451046 0.451046 0.451046 0.451046 0.451046 0.451046 0.451046 0.451046 0.451046 0.451046 0.451046 0.451046 0.451046 0.451046 0.451046 0.451046 0.451046 0.451046 0.451046 0.451046 0.451046 0.451046 0.451046 0.451046 0.451046 0.451046 0.451046 0.451046 
0.451046 0.451046 0.451046 0.451046 0.451046 0.451046 0.451046 0.451046 0.451046 0.451046 0.451046 0.451046 0.451046 0.451046 0.451046 0.451046 0.451046 0.451046 0.451046 0.451046 0.451046 0.451046 0.451046 0.451046 0.451046 0.451046 0.451046 0.451046 0.451046 0.451046 0.451046 0.451046 0.451046 0.451046 0.451046 0.451046 0.451046 0.451046 0.451046 0.451046 0.451046 0.451046 0.451046 0.451046 0.451046 0.451046 0.451046 0.451046 0.451046 0.451046 0.451046 0.451046 0.451046 0.451046 0.451046 0.451046 0.451046 0.451046 0.451046 0.451046 0.451046 0.451046 0.451046 0.451046 0.451046 0.451046 0.451046 0.451046 0.451046 0.451046 0.451046 0.451046 0.451046 0.451046 0.451046 0.451046 0.451046 0.451046 0.451046 0.451046 0.451046 0.451046 0.451046 0.451046 0.451046 0.451046 0.451046 0.451046 0.451046 0.451046 0.451046 0.451046 0.451046 0.451046 0.451046 0.451046 
0.451046 0.451046 0.451046 0.451046 0.451046 0.451046 0.451046 0.451046 0.451046 0.451046 0.451046 0.451046 0.451046 0.451046 0.451046 0.451046 0.451046 0.451046 0.451046 0.451046 0.451046 0.451046 0.451046 0.451046 0.451046 0.451046 0.451046 0.451046 0.451046 0.451046 0.451046 0.451046 0.451046 0.451046 0.451046 0.451046 0.451046 0.451046 0.451046 0.451046 0.451046 0.451046 0.451046 0.451046 0.451046 0.451046 0.451046 0.451046 0.451046 0.451046 0.451046 0.451046 0.451046 0.451046 0.451046 0.451046 0.451046 0.451046 0.451046 0.451046 0.451046 0.451046 0.451046 0.451046 0.451046 0.451046 0.451046 0.451046 0.451046 0.451046 0.451046 0.451046 0.451046 0.451046 0.451046 0.451046 0.451046 0.451046 0.451046 0.451046 0.451046 0.451046 0.451046 0.451046 0.451046 0.451046 0.451046 0.451046 0.451046 0.451046 0.451046 0.451046 0.451046 0.451046 0.451046 0.451046 
0.451046 0.451046 0.451046 0.451046 0.451046 0.451046 0.451046 0.451046 0.451046 0.451046 0.451046 0.451046 0.451046 0.451046 0.451046 0.451046 0.451046 0.451046 0.451046 0.451046 0.451046 0.451046 0.451046 0.451046 0.451046 0.451046 0.451046 0.451046 0.451046 0.451046 0.451046 0.451046 0.451046 0.451046 0.451046 0.451046 0.451046 0.451046 0.451046 0.451046 0.451046 0.451046 0.451046 0.451046 0.451046 0.451046 0.451046 0.451046 0.451046 0.451046 0.451046 0.451046 0.451046 0.451046 0.451046 0.451046 0.451046 0.451046 0.451046 0.451046 0.451046 0.451046 0.451046 0.451046 0.451046 0.451046 0.451046 0.451046 0.451046 0.451046 0.451046 0.451046 0.451046 0.451046 0.451046 0.451046 0.451046 0.451046 0.451046 0.451046 0.451046 0.451046 0.451046 0.451046 0.451046 0.451046 0.451046 0.451046 0.451046 0.451046 0.451046 0.451046 0.451046 0.451046 0.451046 0.451046 
0.451046 0.451046 0.451046 0.451046 0.451046 0.451046 0.451046 0.451046 0.451046 0.451046 0.451046 0.451046 0.451046 0.451046 0.451046 0.451046 0.451046 0.451046 0.451046 0.451046 0.451046 0.451046 0.451046 0.451046 0.451046 0.451046 0.451046 0.451046 0.451046 0.451046 0.451046 0.451046 0.451046 0.451046 0.451046 0.451046 0.451046 0.451046 0.451046 0.451046 0.451046 0.451046 0.451046 0.451046 0.451046 0.451046 0.451046 0.451046 0.451046 0.451046 0.451046 0.451046 0.451046 0.451046 0.451046 0.451046 0.451046 0.451046 0.451046 0.451046 0.451046 0.451046 0.451046 0.451046 0.451046 0.451046 0.451046 0.451046 0.451046 0.451046 0.451046 0.451046 0.451046 0.451046 0.451046 0.451046 0.451046 0.451046 0.451046 0.451046 0.451046 0.451046 0.451046 0.451046 0.451046 0.451046 0.451046 0.451046 0.451046 0.451046 0.451046 0.451046 0.451046 0.451046 0.451046 0.451046 
0.451046 0.451046 0.451046 0.451046 0.451046 0.451046 0.451046 0.451046 0.451046 0.451046 0.451046 0.451046 0.451046 0.451046 0.451046 0.451046 0.451046 0.451046 0.451046 0.451046 0.451046 0.451046 0.451046 0.451046 0.451046 0.451046 0.451046 0.451046 0.451046 0.451046 0.451046 0.451046 0.451046 0.451046 0.451046 0.451046 0.451046 0.451046 0.451046 0.451046 0.451046 0.451046 0.451046 0.451046 0.451046 0.451046 0.451046 0.451046 0.451046 0.451046 0.451046 0.451046 0.451046 0.451046 0.451046 0.451046 0.451046 0.451046 0.451046 0.451046 0.451046 0.451046 0.451046 0.451046 0.451046 0.451046 0.451046 0.451046 0.451046 0.451046 0.451046 0.451046 0.451046 0.451046 0.451046 0.451046 0.451046 0.451046 0.451046 0.451046 0.451046 0.451046 0.451046 0.451046 0.451046 0.451046 0.451046 0.451046 0.451046 0.451046 0.451046 0.451046 0.451046 0.451046 0.451046 0.451046 
0.451046 0.451046 0.451046 0.451046 0.451046 0.451046 0.451046 0.451046 0.451046 0.451046 0.451046 0.451046 0.451046 0.451046 0.451046 0.451046 0.451046 0.451046 0.451046 0.451046 0.451046 0.451046 0.451046 0.451046 0.451046 0.451046 0.451046 0.451046 0.451046 0.451046 0.451046 0.451046 0.451046 0.451046 0.451046 0.451046 0.451046 0.451046 0.451046 0.451046 0.451046 0.451046 0.451046 0.451046 0.451046 0.451046 0.451046 0.451046 0.451046 0.451046 0.451046 0.451046 0.451046 0.451046 0.451046 0.451046 0.451046 0.451046 0.451046 0.451046 0.451046 0.451046 0.451046 0.451046 0.451046 0.451046 0.451046 0.451046 0.451046 0.451046 0.451046 0.451046 0.451046 0.451046 0.451046 0.451046 0.451046 0.451046 0.451046 0.451046 0.451046 0.451046 0.451046 0.451046 0.451046 0.451046 0.451046 0.451046 0.451046 0.451046 0.451046 0.451046 0.451046 0.451046 0.451046 0.451046 
0.451046 0.451046 0.451046 0.451046 0.451046 0.451046 0.451046 0.451046 0.451046 0.451046 0.451046 0.451046 0.451046 0.451046 0.451046 0.451046 0.451046 0.451046 0.451046 0.451046 0.451046 0.451046 0.451046 0.451046 0.451046 0.451046 0.451046 0.451046 0.451046 0.451046 0.451046 0.451046 0.451046 0.451046 0.451046 0.451046 0.451046 0.451046 0.451046 0.451046 0.451046 0.451046 0.451046 0.451046 0.451046 0.451046 0.451046 0.451046 0.451046 0.451046 0.451046 0.451046 0.451046 0.451046 0.451046 0.451046 0.451046 0.451046 0.451046 0.451046 0.451046 0.451046 0.451046 0.451046 0.451046 0.451046 0.451046 0.451046 0.451046 0.451046 0.451046 0.451046 0.451046 0.451046 0.451046 0.451046 0.451046 0.451046 0.451046 0.451046 0.451046 0.451046 0.451046 0.451046 0.451046 0.451046 0.451046 0.451046 0.451046 0.451046 0.451046 0.451046 0.451046 0.451046 0.451046 0.451046 
0.451046 0.451046 0.451046 0.451046 0.451046 0.451046 0.451046 0.451046 0.451046 0.451046 0.451046 0.451046 0.451046 0.451046 0.451046 0.451046 0.451046 0.451046 0.451046 0.451046 0.451046 0.451046 0.451046 0.451046 0.451046 0.451046 0.451046 0.451046 0.451046 0.451046 0.451046 0.451046 0.451046 0.451046 0.451046 0.451046 0.451046 0.451046 0.451046 0.451046 0.451046 0.451046 0.451046 0.451046 0.451046 0.451046 0.451046 0.451046 0.451046 0.451046 0.451046 0.451046 0.451046 0.451046 0.451046 0.451046 0.451046 0.451046 0.451046 0.451046 0.451046 0.451046 0.451046 0.451046 0.451046 0.451046 0.451046 0.451046 0.451046 0.451046 0.451046 0.451046 0.451046 0.451046 0.451046 0.451046 0.451046 0.451046 0.451046 0.451046 0.451046 0.451046 0.451046 0.451046 0.451046 0.451046 0.451046 0.451046 0.451046 0.451046 0.451046 0.451046 0.451046 0.451046 0.451046 0.451046 
0.451046 0.451046 0.451046 0.451046 0.451046 0.451046 0.451046 0.451046 0.451046 0.451046 0.451046 0.451046 0.451046 0.451046 0.451046 0.451046 0.451046 0.451046 0.451046 0.451046 0.451046 0.451046 0.451046 0.451046 0.451046 0.451046 0.451046 0.451046 0.451046 0.451046 0.451046 0.451046 0.451046 0.451046 0.451046 0.451046 0.451046 0.451046 0.451046 0.451046 0.451046 0.451046 0.451046 0.451046 0.451046 0.451046 0.451046 0.451046 0.451046 0.451046 0.451046 0.451046 0.451046 0.451046 0.451046 0.451046 0.451046 0.451046 0.451046 0.451046 0.451046 0.451046 0.451046 0.451046 0.451046 0.451046 0.451046 0.451046 0.451046 0.451046 0.451046 0.451046 0.451046 0.451046 0.451046 0.451046 0.451046 0.451046 0.451046 0.451046 0.451046 0.451046 0.451046 0.451046 0.451046 0.451046 0.451046 0.451046 0.451046 0.451046 0.451046 0.451046 0.451046 0.451046 0.451046 0.451046 
0.451046 0.451046 0.451046 0.451046 0.451046 0.451046 0.451046 0.451046 0.451046 0.451046 0.451046 0.451046 0.451046 0.451046 0.451046 0.451046 0.451046 0.451046 0.451046 0.451046 0.451046 0.451046 0.451046 0.451046 0.451046 0.451046 0.451046 0.451046 0.451046 0.451046 0.451046 0.451046 0.451046 0.451046 0.451046 0.451046 0.451046 0.451046 0.451046 0.451046 0.451046 0.451046 0.451046 0.451046 0.451046 0.451046 0.451046 0.451046 0.451046 0.451046 0.451046 0.451046 0.451046 0.451046 0.451046 0.451046 0.451046 0.451046 0.451046 0.451046 0.451046 0.451046 0.451046 0.451046 0.451046 0.451046 0.451046 0.451046 0.451046 0.451046 0.451046 0.451046 0.451046 0.451046 0.451046 0.451046 0.451046 0.451046 0.451046 0.451046 0.451046 0.451046 0.451046 0.451046 0.451046 0.451046 0.451046 0.451046 0.451046 0.451046 0.451046 0.451046 0.451046 0.451046 0.451046 0.451046 
0.451046 0.451046 0.451046 0.451046 0.451046 0.451046 0.451046 0.451046 0.451046 0.451046 0.451046 0.451046 0.451046 0.451046 0.451046 0.451046 0.451046 0.451046 0.451046 0.451046 0.451046 0.451046 0.451046 0.451046 0.451046 0.451046 0.451046 0.451046 0.451046 0.451046 0.451046 0.451046 0.451046 0.451046 0.451046 0.451046 0.451046 0.451046 0.451046 0.451046 0.451046 0.451046 0.451046 0.451046 0.451046 0.451046 0.451046 0.451046 0.451046 0.451046 0.451046 0.451046 0.451046 0.451046 0.451046 0.451046 0.451046 0.451046 0.451046 0.451046 0.451046 0.451046 0.451046 0.451046 0.451046 0.451046 0.451046 0.451046 0.451046 0.451046 0.451046 0.451046 0.451046 0.451046 0.451046 0.451046 0.451046 0.451046 0.451046 0.451046 0.451046 0.451046 0.451046 0.451046 0.451046 0.451046 0.451046 0.451046 0.451046 0.451046 0.451046 0.451046 0.451046 0.451046 0.451046 0.451046 
0.451046 0.451046 0.451046 0.451046 0.451046 0.451046 0.451046 0.451046 0.451046 0.451046 0.451046 0.451046 0.451046 0.451046 0.451046 0.451046 0.451046 0.451046 0.451046 0.451046 0.451046 0.451046 0.451046 0.451046 0.451046 0.451046 0.451046 0.451046 0.451046 0.451046 0.451046 0.451046 0.451046 0.451046 0.451046 0.451046 0.451046 0.451046 0.451046 0.451046 0.451046 0.451046 0.451046 0.451046 0.451046 0.451046 0.451046 0.451046 0.451046 0.451046 0.451046 0.451046 0.451046 0.451046 0.451046 0.451046 0.451046 0.451046 0.451046 0.451046 0.451046 0.451046 0.451046 0.451046 0.451046 0.451046 0.451046 0.451046 0.451046 0.451046 0.451046 0.451046 0.451046 0.451046 0.451046 0.451046 0.451046 0.451046 0.451046 0.451046 0.451046 0.451046 0.451046 0.451046 0.451046 0.451046 0.451046 0.451046 0.451046 0.451046 0.451046 0.451046 0.451046 0.451046 0.451046 0.451046 
0.451046 0.451046 0.451046 0.451046 0.451046 0.451046 0.451046 0.451046 0.451046 0.451046 0.451046 0.451046 0.451046 0.451046 0.451046 0.451046 0.451046 0.451046 0.451046 0.451046 0.451046 0.451046 0.451046 0.451046 0.451046 0.451046 0.451046 0.451046 0.451046 0.451046 0.451046 0.451046 0.451046 0.451046 0.451046 0.451046 0.451046 0.451046 0.451046 0.451046 0.451046 0.451046 0.451046 0.451046 0.451046 0.451046 0.451046 0.451046 0.451046 0.451046 0.451046 0.451046 0.451046 0.451046 0.451046 0.451046 0.451046 0.451046 0.451046 0.451046 0.451046 0.451046 0.451046 0.451046 0.451046 0.451046 0.451046 0.451046 0.451046 0.451046 0.451046 0.451046 0.451046 0.451046 0.451046 0.451046 0.451046 0.451046 0.451046 0.451046 0.451046 0.451046 0.451046 0.451046 0.451046 0.451046 0.451046 0.451046 0.451046 0.451046 0.451046 0.451046 0.451046 0.451046 0.451046 0.451046 
0.451046 0.451046 0.451046 0.451046 0.451046 0.451046 0.451046 0.451046 0.451046 0.451046 0.451046 0.451046 0.451046 0.451046 0.451046 0.451046 0.451046 0.451046 0.451046 0.451046 0.451046 0.451046 0.451046 0.451046 0.451046 0.451046 0.451046 0.451046 0.451046 0.451046 0.451046 0.451046 0.451046 0.451046 0.451046 0.451046 0.451046 0.451046 0.451046 0.451046 0.451046 0.451046 0.451046 0.451046 0.451046 0.451046 0.451046 0.451046 0.451046 0.451046 0.451046 0.451046 0.451046 0.451046 0.451046 0.451046 0.451046 0.451046 0.451046 0.451046 0.451046 0.451046 0.451046 0.451046 0.451046 0.451046 0.451046 0.451046 0.451046 0.451046 0.451046 0.451046 0.451046 0.451046 0.451046 0.451046 0.451046 0.451046 0.451046 0.451046 0.451046 0.451046 0.451046 0.451046 0.451046 0.451046 0.451046 0.451046 0.451046 0.451046 0.451046 0.451046 0.451046 0.451046 0.451046 0.451046 
0.451046 0.451046 0.451046 0.451046 0.451046 0.451046 0.451046 0.451046 0.451046 0.451046 0.451046 0.451046 0.451046 0.451046 0.451046 0.451046 0.451046 0.451046 0.451046 0.451046 0.451046 0.451046 0.451046 0.451046 0.451046 0.451046 0.451046 0.451046 0.451046 0.451046 0.451046 0.451046 0.451046 0.451046 0.451046 0.451046 0.451046 0.451046 0.451046 0.451046 0.451046 0.451046 0.451046 0.451046 0.451046 0.451046 0.451046 0.451046 0.451046 0.451046 0.451046 0.451046 0.451046 0.451046 0.451046 0.451046 0.451046 0.451046 0.451046 0.451046 0.451046 0.451046 0.451046 0.451046 0.451046 0.451046 0.451046 0.451046 0.451046 0.451046 0.451046 0.451046 0.451046 0.451046 0.451046 0.451046 0.451046 0.451046 0.451046 0.451046 0.451046 0.451046 0.451046 0.451046 0.451046 0.451046 0.451046 0.451046 0.451046 0.451046 0.451046 0.451046 0.451046 0.451046 0.451046 0.451046 
0.451046 0.451046 0.451046 0.451046 0.451046 0.451046 0.451046 0.451046 0.451046 0.451046 0.451046 0.451046 0.451046 0.451046 0.451046 0.451046 0.451046 0.451046 0.451046 0.451046 0.451046 0.451046 0.451046 0.451046 0.451046 0.451046 0.451046 0.451046 0.451046 0.451046 0.451046 0.451046 0.451046 0.451046 0.451046 0.451046 0.451046 0.451046 0.451046 0.451046 0.451046 0.451046 0.451046 0.451046 0.451046 0.451046 0.451046 0.451046 0.451046 0.451046 0.451046 0.451046 0.451046 0.451046 0.451046 0.451046 0.451046 0.451046 0.451046 0.451046 0.451046 0.451046 0.451046 0.451046 0.451046 0.451046 0.451046 0.451046 0.451046 0.451046 0.451046 0.451046 0.451046 0.451046 0.451046 0.451046 0.451046 0.451046 0.451046 0.451046 0.451046 0.451046 0.451046 0.451046 0.451046 0.451046 0.451046 0.451046 0.451046 0.451046 0.451046 0.451046 0.451046 0.451046 0.451046 0.451046 
0.451046 0.451046 0.451046 0.451046 0.451046 0.451046 0.451046 0.451046 0.451046 0.451046 0.451046 0.451046 0.451046 0.451046 0.451046 0.451046 0.451046 0.451046 0.451046 0.451046 0.451046 0.451046 0.451046 0.451046 0.451046 0.451046 0.451046 0.451046 0.451046 0.451046 0.451046 0.451046 0.451046 0.451046 0.451046 0.451046 0.451046 0.451046 0.451046 0.451046 0.451046 0.451046 0.451046 0.451046 0.451046 0.451046 0.451046 0.451046 0.451046 0.451046 0.451046 0.451046 0.451046 0.451046 0.451046 0.451046 0.451046 0.451046 0.451046 0.451046 0.451046 0.451046 0.451046 0.451046 0.451046 0.451046 0.451046 0.451046 0.451046 0.451046 0.451046 0.451046 0.451046 0.451046 0.451046 0.451046 0.451046 0.451046 0.451046 0.451046 0.451046 0.451046 0.451046 0.451046 0.451046 0.451046 0.451046 0.451046 0.451046 0.451046 0.451046 0.451046 0.451046 0.451046 0.451046 0.451046 
0.451046 0.451046 0.451046 0.451046 0.451046 0.451046 0.451046 0.451046 0.451046 0.451046 0.451046 0.451046 0.451046 0.451046 0.451046 0.451046 0.451046 0.451046 0.451046 0.451046 0.451046 0.451046 0.451046 0.451046 0.451046 0.451046 0.451046 0.451046 0.451046 0.451046 0.451046 0.451046 0.451046 0.451046 0.451046 0.451046 0.451046 0.451046 0.451046 0.451046 0.451046 0.451046 0.451046 0.451046 0.451046 0.451046 0.451046 0.451046 0.451046 0.451046 0.451046 0.451046 0.451046 0.451046 0.451046 0.451046 0.451046 0.451046 0.451046 0.451046 0.451046 0.451046 0.451046 0.451046 0.451046 0.451046 0.451046 0.451046 0.451046 0.451046 0.451046 0.451046 0.451046 0.451046 0.451046 0.451046 0.451046 0.451046 0.451046 0.451046 0.451046 0.451046 0.451046 0.451046 0.451046 0.451046 0.451046 0.451046 0.451046 0.451046 0.451046 0.451046 0.451046 0.451046 0.451046 0.451046 
0.451046 0.451046 0.451046 0.451046 0.451046 0.451046 0.451046 0.451046 0.451046 0.451046 0.451046 0.451046 0.451046 0.451046 0.451046 0.451046 0.451046 0.451046 0.451046 0.451046 0.451046 0.451046 0.451046 0.451046 0.451046 0.451046 0.451046 0.451046 0.451046 0.451046 0.451046 0.451046 0.451046 0.451046 0.451046 0.451046 0.451046 0.451046 0.451046 0.451046 0.451046 0.451046 0.451046 0.451046 0.451046 0.451046 0.451046 0.451046 0.451046 0.451046 0.451046 0.451046 0.451046 0.451046 0.451046 0.451046 0.451046 0.451046 0.451046 0.451046 0.451046 0.451046 0.451046 0.451046 0.451046 0.451046 0.451046 0.451046 0.451046 0.451046 0.451046 0.451046 0.451046 0.451046 0.451046 0.451046 0.451046 0.451046 0.451046 0.451046 0.451046 0.451046 0.451046 0.451046 0.451046 0.451046 0.451046 0.451046 0.451046 0.451046 0.451046 0.451046 0.451046 0.451046 0.451046 0.451046 
0.451046 0.451046 0.451046 0.451046 0.451046 0.451046 0.451046 0.451046 0.451046 0.451046 0.451046 0.451046 0.451046 0.451046 0.451046 0.451046 0.451046 0.451046 0.451046 0.451046 0.451046 0.451046 0.451046 0.451046 0.451046 0.451046 0.451046 0.451046 0.451046 0.451046 0.451046 0.451046 0.451046 0.451046 0.451046 0.451046 0.451046 0.451046 0.451046 0.451046 0.451046 0.451046 0.451046 0.451046 0.451046 0.451046 0.451046 0.451046 0.451046 0.451046 0.451046 0.451046 0.451046 0.451046 0.451046 0.451046 0.451046 0.451046 0.451046 0.451046 0.451046 0.451046 0.451046 0.451046 0.451046 0.451046 0.451046 0.451046 0.451046 0.451046 0.451046 0.451046 0.451046 0.451046 0.451046 0.451046 0.451046 0.451046 0.451046 0.451046 0.451046 0.451046 0.451046 0.451046 0.451046 0.451046 0.451046 0.451046 0.451046 0.451046 0.451046 0.451046 0.451046 0.451046 0.451046 0.451046 
0.451046 0.451046 0.451046 0.451046 0.451046 0.451046 0.451046 0.451046 0.451046 0.451046 0.451046 0.451046 0.451046 0.451046 0.451046 0.451046 0.451046 0.451046 0.451046 0.451046 0.451046 0.451046 0.451046 0.451046 0.451046 0.451046 0.451046 0.451046 0.451046 0.451046 0.451046 0.451046 0.451046 0.451046 0.451046 0.451046 0.451046 0.451046 0.451046 0.451046 0.451046 0.451046 0.451046 0.451046 0.451046 0.451046 0.451046 0.451046 0.451046 0.451046 0.451046 0.451046 0.451046 0.451046 0.451046 0.451046 0.451046 0.451046 0.451046 0.451046 0.451046 0.451046 0.451046 0.451046 0.451046 0.451046 0.451046 0.451046 0.451046 0.451046 0.451046 0.451046 0.451046 0.451046 0.451046 0.451046 0.451046 0.451046 0.451046 0.451046 0.451046 0.451046 0.451046 0.451046 0.451046 0.451046 0.451046 0.451046 0.451046 0.451046 0.451046 0.451046 0.451046 0.451046 0.451046 0.451046 
0.451046 0.451046 0.451046 0.451046 0.451046 0.451046 0.451046 0.451046 0.451046 0.451046 0.451046 0.451046 0.451046 0.451046 0.451046 0.451046 0.451046 0.451046 0.451046 0.451046 0.451046 0.451046 0.451046 0.451046 0.451046 0.451046 0.451046 0.451046 0.451046 0.451046 0.451046 0.451046 0.451046 0.451046 0.451046 0.451046 0.451046 0.451046 0.451046 0.451046 0.451046 0.451046 0.451046 0.451046 0.451046 0.451046 0.451046 0.451046 0.451046 0.451046 0.451046 0.451046 0.451046 0.451046 0.451046 0.451046 0.451046 0.451046 0.451046 0.451046 0.451046 0.451046 0.451046 0.451046 0.451046 0.451046 0.451046 0.451046 0.451046 0.451046 0.451046 0.451046 0.451046 0.451046 0.451046 0.451046 0.451046 0.451046 0.451046 0.451046 0.451046 0.451046 0.451046 0.451046 0.451046 0.451046 0.451046 0.451046 0.451046 0.451046 0.451046 0.451046 0.451046 0.451046 0.451046 0.451046 
0.451046 0.451046 0.451046 0.451046 0.451046 0.451046 0.451046 0.451046 0.451046 0.451046 0.451046 0.451046 0.451046 0.451046 0.451046 0.451046 0.451046 0.451046 0.451046 0.451046 0.451046 0.451046 0.451046 0.451046 0.451046 0.451046 0.451046 0.451046 0.451046 0.451046 0.451046 0.451046 0.451046 0.451046 0.451046 0.451046 0.451046 0.451046 0.451046 0.451046 0.451046 0.451046 0.451046 0.451046 0.451046 0.451046 0.451046 0.451046 0.451046 0.451046 0.451046 0.451046 0.451046 0.451046 0.451046 0.451046 0.451046 0.451046 0.451046 0.451046 0.451046 0.451046 0.451046 0.451046 0.451046 0.451046 0.451046 0.451046 0.451046 0.451046 0.451046 0.451046 0.451046 0.451046 0.451046 0.451046 0.451046 0.451046 0.451046 0.451046 0.451046 0.451046 0.451046 0.451046 0.451046 0.451046 0.451046 0.451046 0.451046 0.451046 0.451046 0.451046 0.451046 0.451046 0.451046 0.451046 
0.451046 0.451046 0.451046 0.451046 0.451046 0.451046 0.451046 0.451046 0.451046 0.451046 0.451046 0.451046 0.451046 0.451046 0.451046 0.451046 0.451046 0.451046 0.451046 0.451046 0.451046 0.451046 0.451046 0.451046 0.451046 0.451046 0.451046 0.451046 0.451046 0.451046 0.451046 0.451046 0.451046 0.451046 0.451046 0.451046 0.451046 0.451046 0.451046 0.451046 0.451046 0.451046 0.451046 0.451046 0.451046 0.451046 0.451046 0.451046 0.451046 0.451046 0.451046 0.451046 0.451046 0.451046 0.451046 0.451046 0.451046 0.451046 0.451046 0.451046 0.451046 0.451046 0.451046 0.451046 0.451046 0.451046 0.451046 0.451046 0.451046 0.451046 0.451046 0.451046 0.451046 0.451046 0.451046 0.451046 0.451046 0.451046 0.451046 0.451046 0.451046 0.451046 0.451046 0.451046 0.451046 0.451046 0.451046 0.451046 0.451046 0.451046 0.451046 0.451046 0.451046 0.451046 0.451046 0.451046 
0.451046 0.451046 0.451046 0.451046 0.451046 0.451046 0.451046 0.451046 0.451046 0.451046 0.451046 0.451046 0.451046 0.451046 0.451046 0.451046 0.451046 0.451046 0.451046 0.451046 0.451046 0.451046 0.451046 0.451046 0.451046 0.451046 0.451046 0.451046 0.451046 0.451046 0.451046 0.451046 0.451046 0.451046 0.451046 0.451046 0.451046 0.451046 0.451046 0.451046 0.451046 0.451046 0.451046 0.451046 0.451046 0.451046 0.451046 0.451046 0.451046 0.451046 0.451046 0.451046 0.451046 0.451046 0.451046 0.451046 0.451046 0.451046 0.451046 0.451046 0.451046 0.451046 0.451046 0.451046 0.451046 0.451046 0.451046 0.451046 0.451046 0.451046 0.451046 0.451046 0.451046 0.451046 0.451046 0.451046 0.451046 0.451046 0.451046 0.451046 0.451046 0.451046 0.451046 0.451046 0.451046 0.451046 0.451046 0.451046 0.451046 0.451046 0.451046 0.451046 0.451046 0.451046 0.451046 0.451046 
0.451046 0.451046 0.451046 0.451046 0.451046 0.451046 0.451046 0.451046 0.451046 0.451046 0.451046 0.451046 0.451046 0.451046 0.451046 0.451046 0.451046 0.451046 0.451046 0.451046 0.451046 0.451046 0.451046 0.451046 0.451046 0.451046 0.451046 0.451046 0.451046 0.451046 0.451046 0.451046 0.451046 0.451046 0.451046 0.451046 0.451046 0.451046 0.451046 0.451046 0.451046 0.451046 0.451046 0.451046 0.451046 0.451046 0.451046 0.451046 0.451046 0.451046 0.451046 0.451046 0.451046 0.451046 0.451046 0.451046 0.451046 0.451046 0.451046 0.451046 0.451046 0.451046 0.451046 0.451046 0.451046 0.451046 0.451046 0.451046 0.451046 0.451046 0.451046 0.451046 0.451046 0.451046 0.451046 0.451046 0.451046 0.451046 0.451046 0.451046 0.451046 0.451046 0.451046 0.451046 0.451046 0.451046 0.451046 0.451046 0.451046 0.451046 0.451046 0.451046 0.451046 0.451046 0.451046 0.451046 
0.451046 0.451046 0.451046 0.451046 0.451046 0.451046 0.451046 0.451046 0.451046 0.451046 0.451046 0.451046 0.451046 0.451046 0.451046 0.451046 0.451046 0.451046 0.451046 0.451046 0.451046 0.451046 0.451046 0.451046 0.451046 0.451046 0.451046 0.451046 0.451046 0.451046 0.451046 0.451046 0.451046 0.451046 0.451046 0.451046 0.451046 0.451046 0.451046 0.451046 0.451046 0.451046 0.451046 0.451046 0.451046 0.451046 0.451046 0.451046 0.451046 0.451046 0.451046 0.451046 0.451046 0.451046 0.451046 0.451046 0.451046 0.451046 0.451046 0.451046 0.451046 0.451046 0.451046 0.451046 0.451046 0.451046 0.451046 0.451046 0.451046 0.451046 0.451046 0.451046 0.451046 0.451046 0.451046 0.451046 0.451046 0.451046 0.451046 0.451046 0.451046 0.451046 0.451046 0.451046 0.451046 0.451046 0.451046 0.451046 0.451046 0.451046 0.451046 0.451046 0.451046 0.451046 0.451046 0.451046 
0.451046 0.451046 0.451046 0.451046 0.451046 0.451046 0.451046 0.451046 0.451046 0.451046 0.451046 0.451046 0.451046 0.451046 0.451046 0.451046 0.451046 0.451046 0.451046 0.451046 0.451046 0.451046 0.451046 0.451046 0.451046 0.451046 0.451046 0.451046 0.451046 0.451046 0.451046 0.451046 0.451046 0.451046 0.451046 0.451046 0.451046 0.451046 0.451046 0.451046 0.451046 0.451046 0.451046 0.451046 0.451046 0.451046 0.451046 0.451046 0.451046 0.451046 0.451046 0.451046 0.451046 0.451046 0.451046 0.451046 0.451046 0.451046 0.451046 0.451046 0.451046 0.451046 0.451046 0.451046 0.451046 0.451046 0.451046 0.451046 0.451046 0.451046 0.451046 0.451046 0.451046 0.451046 0.451046 0.451046 0.451046 0.451046 0.451046 0.451046 0.451046 0.451046 0.451046 0.451046 0.451046 0.451046 0.451046 0.451046 0.451046 0.451046 0.451046 0.451046 0.451046 0.451046 0.451046 0.451046 
0.451046 0.451046 0.451046 0.451046 0.451046 0.451046 0.451046 0.451046 0.451046 0.451046 0.451046 0.451046 0.451046 0.451046 0.451046 0.451046 0.451046 0.451046 0.451046 0.451046 0.451046 0.451046 0.451046 0.451046 0.451046 0.451046 0.451046 0.451046 0.451046 0.451046 0.451046 0.451046 0.451046 0.451046 0.451046 0.451046 0.451046 0.451046 0.451046 0.451046 0.451046 0.451046 0.451046 0.451046 0.451046 0.451046 0.451046 0.451046 0.451046 0.451046 0.451046 0.451046 0.451046 0.451046 0.451046 0.451046 0.451046 0.451046 0.451046 0.451046 0.451046 0.451046 0.451046 0.451046 0.451046 0.451046 0.451046 0.451046 0.451046 0.451046 0.451046 0.451046 0.451046 0.451046 0.451046 0.451046 0.451046 0.451046 0.451046 0.451046 0.451046 0.451046 0.451046 0.451046 0.451046 0.451046 0.451046 0.451046 0.451046 0.451046 0.451046 0.451046 0.451046 0.451046 0.451046 0.451046 
